1154,1421,222367,
1142,1417,254800,
1147,1417,41139,
1145,1433,240635,
1142,1418,234503,
1154,1422,47207,
1141,1417,5179,
1147,1416,213422,
1144,1436,20177,
1141,1418,26193,
1153,1422,214125,
1145,1417,255236,
1147,1418,51140,
1145,1438,239621,
1142,1417,229295,
1151,1421,42583,
1143,1420,2459,
1146,1417,215335,
1144,1437,23658,
1142,1417,30282,
1152,1423,215121,
1143,1418,260471,
1148,1418,47983,
1145,1438,230476,
1144,1418,235431,
1151,1422,51460,
1143,1419,261679,
1147,1417,211124,
1144,1439,29440,
1141,1420,30218,
1152,1420,206894,
1144,1422,261789,
1148,1420,48942,
1146,1436,229278,
1145,1420,236297,
1151,1423,57688,
1145,1423,3266,
1148,1420,214080,
1148,1438,32117,
1148,1424,27608,
1155,1428,213502,
1152,1431,6808,
1158,1428,58437,
1158,1446,226809,
1159,1440,231292,
1168,1447,58093,
1168,1450,257837,
1175,1452,205621,
1180,1475,40059,
1187,1472,36735,
1197,1486,209656,
1202,1498,17892,
1208,1509,70075,
1214,1531,220845,
1209,1530,234210,
1211,1536,64698,
1200,1536,256138,
1193,1533,210189,
1185,1545,50733,
1167,1534,32828,
1164,1536,191247,
1152,1530,7527,
1152,1523,57943,
1155,1530,213503,
1145,1513,233645,
1149,1505,63786,
1146,1490,253524,
1149,1476,207260,
1153,1473,49731,
1146,1451,27502,
1149,1444,194213,
1146,1437,14618,
1146,1428,60154,
1156,1432,207209,
1142,1423,237187,
1148,1426,68573,
1145,1418,245704,
1144,1416,209021,
1158,1429,61886,
1143,1421,39819,
1147,1423,195403,
1142,1421,15834,
1144,1418,67262,
1161,1425,207363,
1143,1417,242657,
1146,1422,77957,
1147,1420,242170,
1143,1418,205063,
1163,1427,65760,
1143,1420,31607,
1148,1421,183715,
1146,1419,26586,
1142,1418,79148,
1164,1425,201150,
1144,1419,240436,
1146,1424,95921,
1144,1422,247224,
1140,1419,203816,
1165,1426,87703,
1143,1419,56163,
1147,1423,194645,
1145,1424,54576,
1144,1423,108260,
1160,1428,239042,
1145,1427,41166,
1148,1434,128183,
1141,1443,108288,
1143,1447,68185,
1161,1474,13652,
1145,1496,215124,
1149,1530,214701,
1147,1572,53136,
1149,1616,7490,
1165,1680,201307,
1149,1745,28170,
1155,1821,41311,
1156,1915,201816,
1157,2021,257423,
1174,2161,60544,
1169,2322,230539,
1187,2523,225260,
1204,2754,54878,
1233,2994,9896,
1286,3261,205633,
1323,3529,30447,
1384,3806,43482,
1453,4103,206760,
1535,4404,260219,
1656,4771,60494,
1782,5183,228510,
1954,5646,227211,
2153,6160,56881,
2364,6632,9992,
2586,7116,206957,
2781,7575,32940,
2991,8039,44665,
3212,8558,208691,
3479,9105,817,
3815,9750,60393,
4209,10479,222819,
4699,11285,229297,
5239,12146,59757,
5818,12985,7324,
6419,13838,206465,
6995,14648,35771,
7539,15395,44205,
8017,16077,207574,
8435,16650,3105,
8856,17243,62431,
9320,17900,223111,
9930,18731,230348,
10731,19798,61889,
11739,21042,6957,
12955,22476,207118,
14328,24054,38384,
15884,25769,45593,
17584,27598,207965,
19400,29464,5472,
21302,31391,61526,
23299,33390,220408,
25467,35521,232656,
27794,37796,63569,
30221,40063,7204,
32674,42294,208892,
35041,44397,40970,
37271,46277,45709,
39160,47813,205628,
40848,49102,6663,
42466,50311,64875,
44049,51098,224546,
45603,52209,232355,
47098,53294,65567,
48547,54309,7123,
49926,55276,205583,
50854,56155,41617,
52041,56950,48078,
53092,57660,201986,
54023,58303,6196,
54919,58943,67548,
55789,59659,224119,
56861,60669,230867,
57859,61653,66406,
58972,62680,4796,
60395,63938,205571,
62204,65516,44257,
64296,67368,45613,
66670,69153,202920,
69012,71584,10635,
71917,74136,66194,
74805,76612,220690,
77597,79051,234656,
80165,81344,68130,
82544,83469,5334,
84439,85181,208915,
86527,87113,47052,
88337,88678,44004,
89575,89705,205390,
89979,89921,15039,
89754,89428,64955,
89049,88448,220546,
88083,87071,234471,
86703,85530,38132,
85294,83875,231704,
83908,82266,225250,
82412,80665,214820,
81024,79151,206567,
79926,77775,205196,
78926,76551,229247,
77994,75374,202635,
77063,74321,198348,
76304,73513,234199,
75880,73063,198363,
75828,73071,198922,
76320,73643,221268,
77478,74961,208899,
79506,77177,203523,
82393,80314,202011,
86039,84356,224976,
90525,89236,199096,
95378,94544,193307,
100280,100009,230731,
104859,105243,196023,
109904,111049,196805,
115347,117512,218980,
121384,124890,205950,
128918,134093,202565,
137749,144771,200981,
146684,155612,220878,
157166,168832,200029,
166560,180973,193858,
174111,191533,228780,
179724,199593,194329,
182227,203677,195339,
182789,205730,217282,
183143,206694,198823,
183399,207238,200561,
183957,207822,198982,
184665,208437,212581,
185669,209037,195642,
186794,209569,189101,
188021,210036,220538,
189300,210517,187559,
190563,210968,194334,
191873,211386,211076,
193217,211805,190093,
194644,212275,199377,
196260,212849,193747,
197999,213465,203747,
199633,213997,193684,
201902,215041,186096,
204383,216327,212676,
207161,218012,183807,
210365,220207,192157,
213901,222778,201997,
217374,225512,183512,
221001,228178,199993,
224369,230695,189142,
227474,232867,196231,
230241,234987,195904,
232570,236917,184690,
234897,238678,206306,
236983,240254,183236,
238892,241673,192966,
240650,242989,200172,
242277,244172,181797,
243784,245223,202394,
245177,246177,188686,
246497,246922,194524,
247490,247694,199533,
248589,248385,184946,
249603,249019,205792,
250564,249594,187316,
251499,250138,194713,
252386,250655,201773,
253237,251122,183042,
254057,251520,203778,
254793,251931,190126,
255517,252299,194410,
256182,252647,203517,
256841,252967,184825,
257464,253241,203876,
258046,253516,191568,
258621,253744,195771,
259175,253984,201722,
259695,254192,186465,
260173,254387,206964,
260619,254542,189587,
261041,254684,193455,
261433,254841,208196,
261796,254981,185280,
262144,255076,204386,
262244,255199,196922,
262531,255298,197284,
262791,255399,203518,
263063,255485,190608,
263330,255596,211228,
263552,255685,193520,
263804,255783,195479,
264019,255861,213689,
264258,255971,188385,
264473,256011,205332,
264684,256112,202172,
264893,256193,199388,
265117,256297,205554,
265322,256363,192503,
265525,256454,212151,
265764,256532,195169,
265972,256634,195800,
266193,256721,216211,
266413,256806,191581,
266611,256894,207396,
266851,256955,206356,
267009,257035,201754,
267204,257108,208333,
267389,257180,197369,
267579,257220,216076,
267743,257301,199405,
267907,257339,200364,
268037,257378,220382,
268167,257425,194986,
268314,257457,210346,
268458,257497,211683,
268567,257548,203672,
268678,257577,211870,
268823,257621,200860,
268951,257645,215352,
269064,257701,201505,
269218,257738,201623,
269322,257791,221554,
269453,257815,195125,
269590,257846,209857,
269716,257897,213523,
269839,257902,204442,
269938,257937,213077,
270043,257940,204208,
270143,257973,218067,
270228,257990,207102,
270327,258008,205503,
270439,258012,224687,
270468,258029,199707,
270543,258033,210681,
270619,258043,217289,
270650,258044,205545,
270684,258026,212279,
270709,258017,205608,
270690,258000,218486,
270655,257961,206895,
270582,257919,202543,
270551,257876,225503,
270491,257845,200398,
270447,257809,209666,
270404,257775,218365,
270375,257736,204887,
270313,257702,210792,
270258,257649,205533,
270205,257616,217977,
270148,257562,206496,
270093,257537,201514,
270082,257499,226831,
270019,257475,200393,
269993,257454,208144,
269953,257407,220155,
269915,257368,204391,
269900,257320,212227,
269862,257295,207357,
269824,257274,216931,
269804,257221,207370,
269763,257202,202568,
269727,257157,226967,
269725,257127,201311,
269698,257092,209216,
269693,257064,222215,
269670,257050,204685,
269659,257014,214180,
269663,256992,210048,
269674,256981,217279,
269674,256957,208722,
269663,256957,203284,
269693,256941,227230,
269675,256910,202166,
269681,256893,209680,
269713,256886,223523,
269711,256873,204417,
269743,256846,213448,
269771,256850,211128,
269777,256840,216737,
269817,256820,209962,
269826,256811,205069,
269845,256811,227726,
269871,256790,201571,
269870,256776,204211,
269905,256779,225600,
269888,256743,205255,
269918,256746,213258,
269943,256729,212595,
269973,256714,216735,
270005,256716,209226,
270032,256702,204164,
270078,256700,227454,
270102,256677,202858,
270140,256656,204664,
270164,256639,227249,
270195,256614,204393,
270259,256617,209369,
270288,256598,214277,
270303,256594,216797,
270358,256586,208128,
270363,256595,203748,
270374,256573,227584,
270393,256553,204797,
270394,256533,206122,
270393,256536,228122,
270379,256519,204894,
270377,256503,211536,
270356,256474,216287,
270331,256455,216362,
270307,256436,208720,
270295,256409,205553,
270271,256376,228094,
270279,256371,204191,
270244,256337,205217,
270224,256309,228733,
270191,256295,203859,
270185,256291,211094,
270181,256262,217453,
270184,256252,214997,
270172,256273,208642,
270163,256280,205631,
270184,256247,227736,
270197,256246,203367,
270177,256241,202175,
270178,256214,230085,
270148,256194,203323,
270165,256194,206297,
270170,256199,218346,
270173,256185,214953,
270177,256164,208147,
270188,256176,206048,
270189,256163,227445,
270213,256142,203333,
270221,256136,201510,
270233,256137,231514,
270236,256134,204149,
270245,256146,205975,
270256,256131,220732,
270251,256120,215410,
270291,256135,208430,
270297,256113,206824,
270297,256089,226710,
270275,256103,204914,
270297,256094,203477,
270300,256080,231940,
270303,256072,204021,
270306,256070,207118,
270286,256064,222677,
270334,256060,214945,
270302,256043,209588,
270308,256026,210294,
270305,256042,228067,
270328,256014,207073,
270274,256007,205970,
270298,256002,234466,
270308,255993,205253,
270278,256009,205588,
270313,256009,226583,
270314,256011,216139,
270334,256035,212317,
270328,256040,212945,
270319,256054,228411,
270338,256100,209089,
270387,256130,208911,
270398,256180,236132,
270442,256249,206515,
270508,256345,208199,
270598,256433,229444,
270619,256519,216392,
270633,256551,209640,
270639,256608,216500,
270666,256670,230128,
270570,256603,212703,
270086,256174,211205,
269135,255252,237367,
267272,253525,211282,
264848,251592,217956,
261718,249565,234627,
258998,249008,222323,
258620,251419,229251,
259604,256836,227756,
263723,267970,228627,
271370,273856,222426,
253511,246449,218037,
229376,229376,231845,
180224,180224,154611,
131072,131072,207117,
89730,81920,65214,
66833,58011,213631,
50324,42856,192441,
38477,32549,56940,
30053,25441,261439,
24099,20177,173378,
19527,16447,20871,
16223,13780,49930,
13836,11868,176766,
12065,10462,233836,
10742,9417,70767,
9714,8620,209851,
8895,7984,181446,
8227,7471,57394,
7626,7031,1076,
7098,6643,188550,
6585,6270,34920,
6072,5877,51418,
5549,5474,175700,
4975,5032,235161,
4411,4584,72997,
3858,4141,209188,
3339,3698,183181,
2890,3308,60391,
2482,2952,261750,
2154,2648,167730,
1888,2410,23936,
1684,2187,49893,
1546,2031,172838,
1432,1899,233574,
1361,1803,74197,
1308,1746,204271,
1276,1674,164803,
1266,1637,58254,
1243,1604,259997,
1238,1582,154474,
1231,1586,19243,
1225,1551,51180,
1231,1547,166861,
1224,1536,228829,
1225,1531,77912,
1223,1547,203825,
1221,1527,170171,
1230,1534,65104,
1222,1534,257949,
1224,1530,163688,
1223,1551,31913,
1221,1529,50438,
1229,1530,167455,
1223,1522,237830,
1226,1517,80339,
1225,1534,200704,
1220,1510,184823,
1229,1514,73647,
1222,1510,253267,
1226,1507,163341,
1224,1525,38260,
1221,1505,47946,
1228,1507,174988,
1221,1506,261311,
1225,1500,83996,
1224,1515,201948,
1221,1500,210596,
1228,1503,82191,
1221,1500,251176,
1225,1497,181727,
1222,1511,50543,
1218,1497,46106,
1227,1502,163172,
1221,1498,248522,
1224,1494,82840,
1223,1508,197274,
1220,1496,208324,
1227,1501,83583,
1222,1496,246775,
1224,1495,187834,
1224,1505,56849,
1220,1495,44950,
1226,1499,166480,
1221,1493,257679,
1223,1493,81756,
1225,1505,188419,
1219,1496,188778,
1224,1498,81091,
1219,1495,243280,
1224,1493,165404,
1225,1503,47427,
1220,1494,41177,
1224,1498,168473,
1218,1494,1929,
1224,1493,81851,
1228,1503,185021,
1218,1495,187900,
1224,1497,82570,
1220,1495,240366,
1222,1492,165296,
1233,1502,50369,
1217,1493,39200,
1223,1497,157560,
1220,1495,254857,
1220,1493,82356,
1233,1504,183465,
1216,1495,194986,
1222,1497,87130,
1222,1496,239567,
1219,1492,155743,
1236,1501,51081,
1215,1493,37439,
1222,1496,154031,
1221,1493,256234,
1219,1492,82195,
1239,1499,179805,
1218,1494,192783,
1222,1497,88702,
1218,1493,236146,
1217,1493,163348,
1239,1501,64311,
1217,1492,31578,
1222,1495,149844,
1219,1495,260906,
1218,1494,79501,
1239,1500,174003,
1217,1491,198919,
1223,1495,91564,
1219,1494,227322,
1217,1492,160233,
1239,1499,64575,
1218,1494,27284,
1223,1496,148545,
1220,1495,3070,
1218,1492,78603,
1238,1499,171479,
1217,1492,204710,
1221,1497,92995,
1218,1497,222577,
1217,1493,161459,
1236,1497,66672,
1215,1493,22815,
1222,1495,149274,
1219,1496,9951,
1216,1492,76897,
1234,1498,169265,
1217,1492,206060,
1220,1494,92477,
1218,1499,219332,
1215,1492,162061,
1231,1496,67580,
1219,1490,19617,
1220,1492,148030,
1219,1502,10916,
1217,1490,74437,
1232,1496,167242,
1220,1491,210169,
1220,1493,92999,
1218,1505,215768,
1215,1493,163297,
1229,1494,69339,
1218,1492,16221,
1223,1493,148170,
1218,1506,15291,
1216,1492,71927,
1228,1496,165118,
1218,1493,214356,
1221,1493,93630,
1218,1509,212952,
1217,1490,165380,
1227,1495,71991,
1218,1494,12242,
1220,1490,148402,
1218,1512,20020,
1216,1493,70068,
1227,1496,163619,
1217,1493,218079,
1221,1493,93899,
1216,1513,210169,
1214,1492,168484,
1226,1497,75774,
1218,1493,9200,
1222,1491,149390,
1218,1513,26208,
1216,1492,67925,
1226,1496,162052,
1219,1491,222577,
1220,1490,94295,
1217,1514,207421,
1215,1491,171200,
1225,1495,77954,
1216,1493,1534,
1221,1490,150333,
1217,1511,34112,
1215,1492,63044,
1223,1497,159146,
1217,1492,228979,
1219,1490,93156,
1218,1509,200882,
1217,1491,176934,
1222,1494,83010,
1216,1492,257537,
1220,1490,149995,
1219,1508,36001,
1215,1492,57442,
1220,1495,156531,
1215,1493,234738,
1221,1489,92977,
1219,1505,197465,
1214,1491,179956,
1222,1496,84923,
1216,1493,252936,
1221,1490,150833,
1220,1503,40243,
1213,1493,53668,
1221,1496,155041,
1216,1494,239810,
1219,1491,91873,
1220,1501,193346,
1216,1491,183532,
1221,1495,87300,
1217,1492,249877,
1218,1489,152031,
1221,1501,44394,
1217,1492,49769,
1220,1495,153778,
1214,1493,245303,
1218,1488,90080,
1225,1502,188607,
1214,1492,186976,
1219,1494,89136,
1215,1493,246254,
1217,1489,152787,
1225,1501,47273,
1214,1491,46937,
1219,1493,152895,
1216,1492,248350,
1216,1490,88522,
1229,1498,185513,
1216,1490,189352,
1221,1495,90245,
1216,1493,243783,
1218,1489,154910,
1234,1499,52632,
1215,1493,43078,
1220,1495,151891,
1217,1492,252936,
1216,1491,87362,
1235,1502,182813,
1214,1493,192719,
1219,1496,91722,
1217,1493,240753,
1215,1491,157877,
1239,1498,59216,
1216,1491,40403,
1221,1496,151763,
1218,1494,259264,
1217,1490,86820,
1237,1500,180818,
1216,1494,199248,
1220,1498,94797,
1218,1495,237738,
1215,1491,161865,
1237,1498,66226,
1214,1492,31953,
1220,1495,149909,
1218,1496,3071,
1215,1490,81388,
1236,1498,174036,
1216,1494,203536,
1220,1495,94658,
1217,1496,229555,
1215,1492,162652,
1231,1498,68114,
1215,1493,26585,
1220,1496,148972,
1217,1497,6523,
1216,1492,78853,
1231,1498,171321,
1216,1496,207421,
1219,1496,94423,
1217,1500,222939,
1217,1492,163179,
1230,1497,69332,
1216,1493,23221,
1219,1496,148895,
1217,1503,10733,
1215,1491,77103,
1229,1496,169461,
1216,1491,211556,
1220,1496,95245,
1217,1506,220049,
1216,1495,164351,
1227,1499,70951,
1217,1495,19838,
1223,1495,149108,
1217,1510,15688,
1215,1493,75466,
1226,1496,167751,
1218,1495,214356,
1221,1495,94782,
1219,1515,215768,
1217,1493,166047,
1225,1499,73284,
1216,1494,16820,
1219,1493,149697,
1217,1515,21176,
1216,1492,73025,
1226,1497,165652,
1217,1495,218615,
1220,1495,95304,
1218,1517,212952,
1216,1493,168597,
1226,1497,76324,
1215,1494,13405,
1217,1494,150631,
1217,1515,27546,
1215,1494,70800,
1226,1497,163989,
1215,1493,224394,
1219,1491,96174,
1217,1516,210169,
1213,1493,172882,
1223,1498,80841,
1216,1494,9206,
1220,1493,151874,
1216,1511,34571,
1213,1493,69222,
1223,1497,163151,
1218,1491,232314,
1219,1494,98057,
1219,1510,208790,
1214,1494,177296,
1222,1498,83985,
1216,1494,382,
1220,1492,151300,
1218,1508,37555,
1216,1495,61640,
1222,1495,158978,
1216,1496,237362,
1218,1494,97706,
1219,1508,205052,
1213,1493,181518,
1223,1497,86766,
1216,1496,256386,
1218,1493,151848,
1218,1505,41769,
1216,1495,56462,
1219,1498,156458,
1216,1495,240942,
1220,1493,93507,
1218,1506,195556,
1215,1492,184715,
1221,1498,88822,
1217,1494,252936,
1219,1492,152995,
1223,1505,45948,
1215,1495,53461,
1222,1498,155443,
1217,1495,245683,
1216,1493,92011,
1225,1504,191359,
1216,1493,188795,
1221,1499,90869,
1216,1494,248350,
1217,1494,154143,
1227,1504,50025,
1217,1492,50025,
1218,1497,154360,
1217,1495,250068,
1217,1493,90821,
1231,1503,188196,
1215,1494,191662,
1220,1498,92472,
1216,1496,246825,
1215,1492,156135,
1234,1502,54721,
1216,1493,47400,
1219,1495,153779,
1217,1494,254469,
1216,1491,90002,
1236,1502,185860,
1216,1495,194296,
1220,1501,93616,
1217,1495,244543,
1215,1495,158030,
1239,1505,59025,
1214,1493,46369,
1219,1499,185639,
1218,1499,42787,
1216,1494,92870,
1241,1501,196276,
1217,1495,244877,
1220,1499,105401,
1217,1499,246455,
1215,1495,195500,
1238,1502,81109,
1217,1497,42646,
1221,1497,180848,
1217,1498,37308,
1217,1494,90769,
1238,1503,190445,
1218,1497,233309,
1222,1497,102978,
1218,1497,242925,
1215,1494,190514,
1235,1501,79988,
1216,1497,33086,
1221,1499,170764,
1218,1502,32353,
1215,1496,84717,
1232,1499,183938,
1216,1495,235506,
1220,1500,100689,
1218,1503,230026,
1217,1494,174401,
1232,1499,74637,
1218,1495,25928,
1221,1497,158814,
1217,1506,22875,
1216,1495,79498,
1228,1500,177775,
1216,1496,234449,
1221,1499,99311,
1217,1506,223450,
1216,1494,180313,
1229,1499,77912,
1217,1494,21672,
1219,1497,162194,
1217,1512,31427,
1215,1496,77278,
1228,1499,169684,
1217,1496,219455,
1221,1496,96451,
1217,1512,218340,
1213,1495,177163,
1225,1497,78223,
1217,1496,17806,
1222,1493,172622,
1215,1517,46852,
1214,1492,74812,
1225,1497,175785,
1217,1492,246513,
1218,1494,99648,
1216,1516,214653,
1215,1493,177753,
1225,1497,80314,
1214,1495,13032,
1219,1495,179156,
1219,1514,53323,
1214,1494,71571,
1224,1497,190984,
1215,1495,25897,
1220,1493,103557,
1218,1513,217699,
1213,1493,224260,
1223,1498,97494,
1215,1494,9425,
1218,1493,196564,
1216,1515,68337,
1212,1492,68626,
1221,1497,185276,
1216,1493,15484,
1219,1491,101116,
1217,1509,212517,
1214,1492,210664,
1222,1497,93028,
1216,1494,260189,
1220,1493,181318,
1216,1509,59449,
1214,1493,60063,
1220,1496,180763,
1216,1494,15624,
1218,1492,97820,
1215,1507,205371,
1215,1491,213730,
1218,1498,94669,
1217,1494,255769,
1217,1493,183348,
1218,1506,62669,
1213,1492,55373,
1219,1497,172044,
1215,1494,7809,
1218,1493,95348,
1220,1504,199408,
1215,1493,203577,
1221,1497,91869,
1215,1495,251764,
1218,1491,165709,
1221,1503,52136,
1216,1492,52606,
1218,1499,162735,
1218,1498,256978,
1218,1492,91314,
1225,1504,191940,
1215,1495,196521,
1220,1499,90731,
1214,1497,248211,
1216,1493,166632,
1229,1507,54491,
1215,1496,48691,
1221,1499,182167,
1216,1497,27471,
1218,1493,91529,
1232,1502,199473,
1215,1494,240662,
1219,1499,99512,
1217,1497,248611,
1217,1495,207286,
1236,1504,81515,
1218,1496,45840,
1220,1499,187813,
1217,1495,40808,
1218,1493,91008,
1237,1503,194799,
1216,1496,231639,
1221,1496,97829,
1217,1496,242147,
1215,1493,165333,
1237,1502,66139,
1214,1494,41049,
1219,1496,151752,
1217,1496,257920,
1216,1495,86580,
1236,1502,181585,
1215,1495,202409,
1219,1497,95367,
1217,1496,239951,
1215,1492,182061,
1237,1501,73335,
1217,1495,31615,
1220,1498,158569,
1216,1497,13842,
1213,1494,81627,
1235,1500,175803,
1214,1495,210784,
1219,1498,95184,
1216,1497,227848,
1216,1492,164617,
1234,1498,68645,
1216,1496,25905,
1220,1498,160653,
1218,1500,19991,
1217,1495,79144,
1232,1500,179619,
1216,1496,234167,
1219,1500,97338,
1216,1502,223549,
1216,1494,179685,
1232,1499,75073,
1217,1496,23465,
1220,1499,156149,
1217,1505,17530,
1215,1497,76432,
1230,1501,169011,
1216,1498,210921,
1221,1501,94194,
1219,1510,218615,
1214,1497,163442,
1228,1499,69682,
1217,1496,19260,
1220,1498,149279,
1217,1511,15676,
1216,1496,74270,
1227,1500,166859,
1216,1496,214356,
1220,1498,94921,
1218,1514,216122,
1215,1496,165202,
1226,1501,71927,
1217,1499,15291,
1218,1499,149256,
1217,1522,20793,
1215,1499,72246,
1225,1508,165070,
1218,1508,217722,
1221,1511,94443,
1218,1541,211730,
1216,1529,168546,
1226,1544,75981,
1220,1559,10733,
1222,1579,151577,
1220,1630,29523,
1218,1646,69663,
1226,1697,165222,
1223,1749,228591,
1228,1822,95937,
1236,1932,209371,
1253,2023,171535,
1302,2167,78102,
1361,2338,5081,
1474,2548,168197,
1628,2810,46679,
1839,3059,66867,
2113,3355,163935,
2415,3659,237728,
2760,3969,97201,
3115,4291,206060,
3475,4563,177205,
3840,4837,83239,
4178,5085,258449,
4506,5303,162068,
4797,5510,44771,
5066,5679,58453,
5334,5876,165458,
5610,6090,250969,
5912,6332,95191,
6230,6617,199407,
6566,6894,178634,
6924,7206,84026,
7287,7540,254485,
7686,7896,152376,
8108,8297,41245,
8573,8727,55028,
9113,9240,161499,
9723,9831,248538,
10446,10530,92505,
11300,11374,194671,
12298,12346,184518,
13487,13511,86709,
14870,14862,249877,
16477,16426,151150,
18284,18191,42143,
20281,20123,51550,
22473,22236,154365,
24820,24494,242432,
27333,26918,90498,
30074,29587,190259,
33102,32546,184216,
36486,35859,87233,
40153,39453,247403,
44001,43234,160960,
47996,47200,50911,
52159,51385,48510,
56301,55639,154901,
61234,60786,248329,
66613,66451,89040,
71946,72184,186959,
77776,78501,186080,
83656,84966,88183,
89309,91315,1426,
95592,98396,255811,
102187,105593,101363,
108844,113582,121520,
116186,122004,45593,
123475,129914,73401,
130994,139069,127614,
138566,148039,72992,
145666,157294,46994,
154726,167887,122129,
164229,179207,101450,
173911,188369,33661,
183645,202230,104285,
192011,212665,120939,
198399,220610,45755,
201919,225630,79586,
203685,228340,128250,
204347,229758,73277,
204592,230355,53983,
204631,230715,124615,
204593,230841,103159,
204574,230848,39936,
204654,230887,110102,
204882,231040,121561,
205275,231367,48860,
205804,231771,85164,
206327,232222,91001,
206909,232667,229327,
207390,233023,44752,
207743,233206,119821,
207890,233159,50658,
207859,232832,22743,
207737,232335,107522,
207692,231820,113356,
207746,231268,44162,
207807,230526,86127,
207772,229521,121436,
207776,228381,72720,
207940,227307,60636,
208182,226289,117657,
208461,225295,98281,
209022,224634,44994,
210422,224737,107338,
212195,225247,111709,
214307,226173,50775,
217409,228677,87917,
221666,231993,115273,
225956,235301,73841,
230117,238471,65233,
233827,241322,111853,
237276,243668,96407,
240122,245510,48597,
242537,246970,105333,
244499,247916,107337,
246090,248779,53279,
247261,249482,91152,
248370,249986,109785,
249251,250366,72832,
250051,250656,68165,
250694,250857,105354,
251280,251045,88381,
251801,251193,47228,
252347,251330,96862,
252789,251451,93871,
253227,251534,45796,
253629,251658,80447,
254005,251720,92958,
254366,251787,57723,
254677,251860,55871,
255036,251950,87086,
255351,252016,71187,
255674,252089,38653,
255956,252153,79413,
256260,252221,76385,
256521,252289,35420,
256813,252355,64984,
257074,252413,76287,
257312,252478,44833,
257559,252531,43619,
257817,252576,70821,
258039,252645,55722,
258254,252715,30131,
258471,252747,64496,
258679,252810,61567,
258867,252853,27303,
259090,252901,52374,
259292,252936,62156,
259464,252984,34595,
259691,253066,39144,
259893,253122,58583,
260073,253169,42785,
260231,253222,25925,
260423,253254,52944,
260593,253296,48769,
260751,253332,21825,
260885,253348,41576,
261031,253390,48313,
261180,253404,22066,
261316,253443,26981,
261470,253473,45452,
261561,253509,27598,
261682,253522,15467,
261813,253547,38467,
261875,253548,35060,
261946,253545,11457,
262018,253562,28155,
262093,253579,36686,
262170,253586,11380,
262063,253588,15017,
262121,253598,35216,
262182,253597,16790,
262279,253632,6417,
262316,253613,27896,
262379,253620,23056,
262413,253622,2759,
262446,253625,17782,
262489,253608,26209,
262517,253608,3424,
262580,253603,5493,
262601,253606,25832,
262646,253593,7965,
262647,253614,583,
262710,253606,18737,
262781,253611,11764,
262831,253635,258943,
262892,253620,9923,
262939,253635,17495,
262998,253656,260888,
263080,253659,3276,
263150,253684,19248,
263215,253682,1584,
263294,253734,260769,
263352,253774,14058,
263439,253775,7249,
263486,253791,258070,
263597,253806,4804,
263656,253828,11555,
263727,253838,256332,
263792,253866,259604,
263861,253875,14467,
263910,253893,257566,
263973,253883,254468,
263992,253899,9379,
264003,253890,1017,
264016,253878,253152,
264021,253861,12,
264048,253868,6156,
263994,253838,251553,
263973,253806,254326,
263929,253774,9694,
263900,253751,251807,
263875,253716,247289,
263811,253689,4977,
263771,253644,257845,
263732,253622,247502,
263687,253584,257274,
263617,253549,1821,
263591,253511,247329,
263540,253458,249746,
263475,253423,5838,
263401,253356,249111,
263323,253337,248525,
263261,253291,2745,
263219,253226,253562,
263130,253178,246428,
263058,253136,255051,
263001,253092,259143,
262954,253043,245176,
262888,253000,247626,
262835,252963,1847,
262784,252911,244854,
262748,252872,244228,
262666,252821,261700,
262601,252775,249252,
262557,252745,243507,
262494,252706,252178,
262423,252664,256064,
262354,252618,243103,
262319,252595,244997,
262252,252542,261219,
262194,252514,241271,
262144,252464,239485,
262067,252432,258159,
262032,252385,244091,
262008,252356,237235,
261925,252322,248569,
261914,252322,251844,
261886,252266,235815,
261838,252238,238835,
261830,252209,257429,
261785,252173,236041,
261777,252149,233993,
261719,252111,255820,
261733,252080,240245,
261728,252078,234466,
261716,252077,246305,
261736,252071,248130,
261757,252056,233179,
261772,252056,236199,
261792,252057,253564,
261797,252038,226514,
261817,252043,226688,
261815,252048,253051,
261829,252026,229615,
261827,252027,217439,
261841,252014,242494,
261845,252007,240663,
261844,251983,214503,
261850,251975,229766,
261842,251959,248603,
261829,251962,217383,
261820,251945,221137,
261818,251940,251109,
261793,251917,226660,
261777,251905,217062,
261784,251894,243064,
261769,251864,238908,
261764,251866,215016,
261751,251868,230945,
261782,251843,247633,
261777,251849,216858,
261783,251863,221227,
261787,251840,249928,
261828,251850,224363,
261849,251847,215997,
261863,251849,242981,
261894,251837,236666,
261918,251846,213563,
261930,251849,230267,
261947,251827,246182,
261943,251810,215620,
261932,251802,221482,
261913,251790,250441,
261911,251751,225251,
261905,251746,218086,
261895,251722,244711,
261890,251719,237585,
261883,251708,215996,
261937,251710,232668,
261944,251737,247248,
261996,251758,217960,
262028,251749,223757,
262040,251754,251050,
262062,251753,224234,
262086,251747,218151,
262107,251751,244943,
262131,251748,236177,
262168,251767,216389,
262224,251860,233793,
262264,251881,246133,
262293,251904,217669,
262317,251893,223783,
262356,251903,250470,
262384,251942,223280,
262433,251921,218419,
262463,251937,245247,
262496,251954,234575,
262565,251963,216022,
262562,251961,234222,
262618,251957,244537,
262662,251970,216823,
262693,251988,224202,
262695,251988,249811,
262751,252001,222746,
262754,251982,219278,
262819,251993,246129,
262826,251993,233825,
262835,251996,216762,
262865,251996,235344,
262930,252007,244345,
262972,252016,218199,
263006,252035,226416,
263044,252043,250229,
263070,252043,223058,
263127,252061,220441,
263168,252073,247068,
263201,252072,233518,
263257,252100,217892,
263292,252102,236313,
263319,252110,241841,
263367,252105,215169,
263383,252116,224353,
263430,252128,247643,
263443,252136,218865,
263495,252153,217921,
263547,252170,245009,
263572,252168,228778,
263598,252182,215760,
263656,252203,235730,
263695,252199,239562,
263732,252208,213759,
263754,252212,223022,
263774,252219,245038,
263831,252218,215431,
263879,252257,215454,
263908,252273,243716,
263932,252289,224060,
263998,252296,212269,
264028,252318,234040,
264089,252322,235998,
264123,252330,210770,
264163,252348,222075,
264198,252361,242557,
264254,252370,212411,
264296,252393,212568,
264339,252414,241051,
264373,252422,219621,
264438,252444,208286,
264493,252470,231489,
264555,252468,232467,
264605,252486,208228,
264605,252509,220640,
264655,252506,241174,
264678,252523,212590,
264703,252516,215606,
264726,252512,244374,
264746,252516,223524,
264735,252504,214302,
264758,252518,236268,
264746,252505,235472,
264746,252482,214224,
264721,252485,226725,
264696,252450,244068,
264644,252428,217215,
264618,252421,219969,
264544,252382,245934,
264509,252358,224400,
264445,252322,216265,
264381,252260,239002,
264298,252215,236499,
264185,252184,215530,
264074,252138,228235,
263986,252089,244037,
263895,252035,216565,
263770,251987,219866,
263706,251926,247127,
263577,251892,223260,
263491,251836,214819,
263389,251789,238733,
263293,251787,234745,
263196,251752,212978,
263109,251731,226811,
263008,251672,242443,
262897,251659,213605,
262809,251618,217691,
262722,251559,244694,
262651,251549,219390,
262568,251509,212505,
262501,251464,237607,
262407,251451,231258,
262367,251412,211256,
262288,251406,226716,
262253,251383,241205,
262193,251357,212632,
262147,251340,217841,
262102,251324,245373,
262086,251311,219635,
262048,251292,213807,
262017,251274,239966,
262020,251278,232622,
261995,251269,213909,
261997,251264,229257,
261988,251250,241979,
261968,251230,216096,
261969,251238,221514,
261962,251235,246527,
261948,251234,221590,
261917,251216,217704,
261919,251205,242267,
261899,251193,236066,
261879,251171,225556,
261859,251177,240247,
261873,251156,249121,
261862,251155,226243,
261880,251156,231664,
261876,251141,252612,
261874,251133,229907,
261897,251135,225962,
261865,251134,247469,
261881,251147,237256,
261900,251152,222670,
261933,251141,237174,
261934,251160,245110,
261933,251152,221501,
261942,251166,227603,
261984,251181,248857,
262001,251181,224190,
262032,251184,221042,
262046,251182,244609,
262056,251186,233186,
262040,251177,219566,
262045,251185,235581,
262018,251177,243215,
262017,251172,220063,
262032,251151,227474,
262011,251136,248680,
261998,251141,224324,
261991,251125,222225,
261947,251092,245648,
261912,251083,232993,
261884,251079,219877,
261835,251051,236479,
261810,251036,242802,
261795,251010,219807,
261791,251022,227633,
261759,250995,249014,
261732,250985,223106,
261717,250989,221673,
261687,250971,245751,
261691,250958,231280,
261682,250951,219374,
261659,250929,237354,
261636,250925,242465,
261637,250918,219787,
261599,250908,228360,
261587,250891,249297,
261572,250882,223790,
261540,250860,223648,
261546,250875,247945,
261558,250872,232212,
261557,250869,221214,
261561,250881,239557,
261571,250891,243395,
261582,250899,221623,
261605,250903,230701,
261632,250918,248900,
261647,250921,224239,
261696,250932,224798,
261703,250951,248319,
261741,250949,231985,
261740,250965,222493,
261775,250961,241067,
261782,250969,242609,
261805,250971,221674,
261793,250966,230959,
261827,250965,248498,
261845,250985,223375,
261849,250992,224900,
261922,250994,248779,
261889,251012,230679,
261935,251024,221504,
261991,251032,240279,
262007,251053,240548,
262023,251070,219853,
262030,251045,230146,
262047,251064,247026,
262077,251077,222337,
262100,251087,224140,
262113,251106,247882,
262150,251125,229028,
262176,251119,220987,
262209,251122,240907,
262262,251142,239649,
262279,251146,220391,
262319,251172,231551,
262333,251181,246507,
262374,251199,221783,
262415,251210,225013,
262421,251217,248743,
262450,251232,228419,
262480,251247,221845,
262499,251231,242264,
262543,251238,239574,
262549,251234,221597,
262544,251262,232554,
262576,251252,245895,
262578,251274,220606,
262613,251274,223395,
262623,251271,247813,
262657,251285,226025,
262680,251315,219539,
262717,251325,241498,
262739,251342,237334,
262765,251341,219860,
262795,251351,232680,
262816,251346,245679,
262854,251373,221191,
262867,251370,225052,
262895,251392,249673,
262911,251377,227443,
262926,251376,221601,
262938,251387,243768,
262956,251396,237599,
262971,251386,220217,
262991,251395,234044,
263012,251399,246078,
263002,251395,221646,
263000,251395,226235,
263049,251389,249266,
263033,251405,227053,
263053,251397,222575,
263042,251376,244163,
263057,251379,236432,
263040,251378,220242,
263051,251366,234359,
263058,251376,245141,
263059,251371,221219,
263077,251366,226043,
263070,251354,248632,
263090,251353,225881,
263077,251347,222210,
263081,251355,244128,
263072,251339,235219,
263078,251332,220257,
263068,251322,235055,
263063,251319,244615,
263060,251294,220878,
263060,251292,226941,
263038,251290,248567,
263011,251261,225331,
262967,251238,222231,
262929,251225,244632,
262863,251198,234248,
262812,251169,219904,
262736,251143,234966,
262652,251133,243625,
262608,251084,220192,
262523,251048,226675,
262425,251002,247731,
262374,250966,223527,
262265,250936,220932,
262185,250872,243901,
262074,250835,231978,
261969,250801,217984,
261888,250747,233948,
261777,250711,241002,
261693,250656,217398,
261563,250611,224994,
261488,250549,246509,
261343,250511,220837,
261246,250453,218774,
261161,250419,243006,
261044,250350,229393,
260964,250312,216377,
260870,250252,233515,
260753,250205,239332,
260648,250159,216100,
260558,250115,224537,
260478,250056,245628,
260389,250003,219563,
260314,249972,218685,
260241,249915,244056,
260144,249876,228989,
260068,249824,216658,
260015,249790,235077,
259924,249770,239988,
259868,249737,216586,
259804,249684,225497,
259745,249647,245930,
259680,249633,219329,
259614,249594,218998,
259549,249578,243590,
259502,249523,227118,
259425,249483,216451,
259382,249436,235924,
259310,249420,239218,
259268,249387,216603,
259214,249363,226192,
259154,249325,245399,
259135,249325,218896,
259098,249300,219569,
259073,249292,244103,
259067,249278,226259,
259061,249259,216822,
259062,249255,236045,
259040,249269,237354,
259077,249282,215713,
259078,249258,226292,
259092,249278,244331,
259113,249267,218059,
259126,249293,219489,
259144,249293,244238,
259117,249283,224854,
259138,249284,215822,
259160,249292,236243,
259148,249294,236197,
259145,249291,215212,
259136,249287,226104,
259148,249280,243215,
259137,249282,217365,
259124,249270,219768,
259120,249270,244726,
259132,249265,224036,
259090,249267,215716,
259102,249275,236777,
259095,249262,234963,
259079,249246,214685,
259077,249241,226461,
259054,249246,242855,
259055,249223,216810,
259038,249230,219959,
259041,249225,245142,
259026,249222,223412,
259006,249197,216112,
258975,249222,237536,
258998,249186,233871,
258964,249197,214871,
258976,249206,227265,
258973,249198,242033,
258963,249189,216531,
258976,249172,220440,
258944,249190,245724,
258959,249189,222784,
258955,249180,216008,
258970,249173,238586,
258969,249171,233840,
258987,249182,214711,
258951,249173,227841,
258959,249183,242091,
258974,249161,216669,
258984,249181,220865,
258990,249178,245793,
259002,249179,222232,
258994,249178,216593,
259021,249168,240012,
259043,249200,233411,
259056,249209,214964,
259087,249214,229130,
259090,249230,242239,
259119,249206,216365,
259143,249227,221281,
259165,249228,246078,
259200,249235,222116,
259219,249241,217011,
259227,249252,240577,
259237,249242,232251,
259258,249250,215337,
259261,249254,230292,
259259,249229,241679,
259243,249243,216827,
259279,249247,222444,
259319,249240,245858,
259320,249243,221777,
259283,249234,218180,
259280,249230,241821,
259297,249217,231962,
259313,249217,216538,
259312,249217,231669,
259310,249223,241361,
259320,249214,216650,
259336,249230,223339,
259358,249247,245768,
259393,249243,221361,
259391,249251,218724,
259408,249239,242141,
259424,249254,230986,
259430,249253,217142,
259440,249261,233082,
259452,249261,241406,
259467,249239,217008,
259462,249255,224486,
259468,249246,246534,
259476,249271,221590,
259479,249273,219590,
259473,249250,243493,
259478,249243,231596,
259491,249248,219064,
259493,249245,234978,
259491,249223,240797,
259482,249237,216234,
259510,249216,223383,
259501,249242,245389,
259535,249234,218612,
259529,249247,217148,
259540,249245,242525,
259540,249242,228772,
259546,249265,216223,
259578,249245,234105,
259591,249251,240187,
259583,249261,216867,
259600,249261,225306,
259616,249269,246745,
259631,249248,220655,
259618,249250,219800,
259616,249264,244926,
259644,249272,229346,
259649,249279,217411,
259671,249290,236088,
259675,249278,240397,
259696,249283,217205,
259704,249282,226792,
259725,249300,246575,
259719,249301,220064,
259752,249300,219936,
259768,249312,244935,
259796,249332,228542,
259812,249332,217740,
259860,249327,236691,
259870,249352,239630,
259882,249352,217080,
259917,249369,226692,
259930,249367,245923,
259958,249396,219522,
259982,249382,220340,
259992,249389,245159,
260019,249395,227625,
260003,249399,217542,
260040,249376,237208,
260045,249406,238052,
260040,249395,216283,
260043,249396,227123,
260042,249376,244966,
260004,249366,219094,
259981,249346,221008,
259916,249317,245535,
259857,249275,226247,
259763,249238,217265,
259659,249199,237926,
259549,249130,237927,
259429,249062,216875,
259296,249017,227816,
259157,248950,244921,
259030,248865,218766,
258847,248825,220686,
258742,248752,245241,
258569,248684,224865,
258412,248616,216992,
258272,248546,237973,
258131,248466,235889,
257997,248400,215089,
257848,248346,226922,
257719,248275,243527,
257577,248226,216835,
257452,248177,219734,
257337,248119,244963,
257233,248067,222765,
257128,248043,215414,
257056,247991,237141,
256986,247960,233690,
256936,247928,214008,
256874,247902,226707,
256807,247882,242376,
256776,247876,216048,
256733,247840,219612,
256686,247821,245591,
256655,247803,222113,
256615,247784,215409,
256607,247776,238125,
256561,247767,232918,
256524,247740,213775,
256507,247740,226877,
256484,247712,241094,
256440,247713,215175,
256428,247700,219782,
256404,247670,245786,
256389,247661,221271,
256389,247660,215287,
256377,247654,238825,
256345,247649,232261,
256368,247640,213494,
256357,247625,227939,
256362,247626,240449,
256373,247625,214487,
256378,247621,219757,
256399,247622,244503,
256395,247611,219712,
256395,247637,214999,
256430,247625,239277,
256460,247633,230833,
256485,247651,214100,
256485,247654,229272,
256519,247656,240621,
256531,247660,214459,
256553,247653,219979,
256587,247679,244593,
256605,247702,219680,
256610,247697,215274,
256630,247722,239691,
256651,247731,229305,
256671,247710,213320,
256657,247707,229718,
256636,247711,239777,
256672,247730,214096,
256684,247700,220806,
256666,247728,244324,
256705,247713,219169,
256701,247731,216157,
256700,247736,240591,
256693,247735,229121,
256709,247729,213922,
256719,247745,230362,
256698,247744,239520,
256715,247748,214811,
256708,247747,221682,
256706,247749,244314,
256699,247728,218578,
256681,247739,216428,
256680,247721,241257,
256697,247734,228070,
256692,247729,214255,
256684,247729,232037,
256668,247718,239460,
256661,247722,214464,
256687,247748,222278,
256682,247745,244636,
256715,247761,218420,
256717,247766,216983,
256740,247757,241652,
256756,247778,226744,
256767,247765,214062,
256760,247756,232599,
256785,247768,238518,
256797,247764,214166,
256797,247776,223289,
256805,247766,245459,
256830,247774,218201,
256834,247780,216979,
256871,247777,242345,
256893,247812,226604,
256915,247805,214833,
256925,247826,233281,
256960,247822,238034,
256968,247849,214670,
257015,247833,223989,
257023,247853,245333,
257084,247860,218015,
257094,247859,217877,
257111,247870,243671,
257144,247885,226189,
257148,247892,214844,
257169,247920,234409,
257215,247904,237158,
257236,247924,214489,
257274,247931,224567,
257277,247936,244044,
257304,247943,216979,
257343,247969,218284,
257353,247957,244605,
257393,247975,225372,
257405,247967,215077,
257435,247997,235722,
257468,247985,236519,
257469,247996,213256,
257506,248016,224097,
257524,248020,242439,
257568,248031,215636,
257592,248049,217726,
257619,248066,243818,
257669,248068,223588,
257712,248094,213922,
257755,248097,235649,
257775,248116,234900,
257811,248134,213136,
257841,248144,224884,
257872,248159,242457,
257895,248158,215170,
257907,248163,218085,
257939,248184,243770,
257945,248175,222680,
257975,248190,215271,
257986,248188,237634,
258027,248201,235827,
258052,248209,214261,
258084,248221,225576,
258097,248225,241673,
258113,248240,213107,
258143,248266,215590,
258194,248260,242456,
258208,248266,219504,
258252,248273,212674,
258275,248276,236445,
258317,248314,232593,
258357,248336,212506,
258387,248337,225840,
258409,248353,241687,
258427,248363,214313,
258463,248387,218354,
258498,248384,245418,
258510,248390,220754,
258524,248398,214114,
258533,248413,237877,
258545,248402,232524,
258570,248407,212515,
258587,248400,226710,
258603,248422,241233,
258600,248421,213919,
258600,248406,218685,
258628,248438,245223,
258667,248429,220196,
258677,248440,214264,
258691,248441,238184,
258721,248441,230763,
258725,248452,212897,
258738,248443,228040,
258752,248461,241027,
258762,248451,214024,
258772,248460,219653,
258816,248460,244963,
258827,248472,219716,
258847,248461,214786,
258862,248466,239225,
258851,248473,229484,
258876,248457,212796,
258868,248482,228722,
258892,248468,240451,
258879,248456,213970,
258851,248454,220392,
258820,248444,245523,
258800,248423,219639,
258743,248403,215327,
258697,248366,240145,
258594,248324,229351,
258476,248265,213522,
258375,248207,230004,
258262,248154,239914,
258121,248088,214195,
257984,248022,221158,
257818,247937,245548,
257646,247870,218886,
257441,247781,215410,
257288,247687,241016,
257101,247595,228349,
256926,247526,212788,
256707,247434,230199,
256525,247334,238747,
256341,247253,212825,
256159,247157,220573,
255974,247082,243917,
255814,247004,217001,
255662,246928,214956,
255477,246843,240835,
255354,246778,226403,
255214,246709,211730,
255086,246661,230775,
254955,246586,238198,
254841,246539,212001,
254756,246494,220435,
254625,246443,243568,
254513,246402,215825,
254460,246356,214533,
254387,246351,241124,
254324,246300,225384,
254281,246286,211711,
254255,246258,231327,
254215,246253,237488,
254202,246232,211750,
254188,246238,221360,
254172,246223,244491,
254159,246220,215662,
254147,246226,214992,
254171,246222,241302,
254181,246219,224254,
254156,246210,212564,
254189,246213,232844,
254184,246228,236767,
254216,246235,212084,
254205,246231,222462,
254223,246245,244027,
254258,246251,215780,
254292,246280,215926,
254363,246292,242336,
254352,246303,223510,
254409,246320,212624,
254450,246333,233251,
254503,246374,235182,
254545,246374,211433,
254589,246422,222611,
254606,246433,242567,
254671,246443,214185,
254696,246459,215709,
254743,246463,242624,
254756,246486,222232,
254771,246511,212000,
254797,246507,233960,
254815,246505,234673,
254828,246502,211822,
254824,246496,223180,
254835,246511,242033,
254860,246507,214022,
254837,246514,216172,
254844,246499,242610,
254853,246529,221119,
254849,246519,212181,
254838,246511,234814,
254844,246515,233466,
254841,246533,211429,
254846,246524,223618,
254844,246527,241731,
254868,246526,213739,
254853,246537,216820,
254858,246541,243646,
254846,246539,220538,
254860,246555,212474,
254903,246564,235915,
254884,246561,232856,
254907,246550,211458,
254916,246570,224444,
254899,246576,241184,
254924,246569,213301,
254951,246572,217317,
254930,246589,244881,
254961,246592,220622,
254981,246601,213105,
255001,246614,236854,
255037,246615,232208,
255061,246654,212205,
255109,246656,225422,
255126,246673,240399,
255155,246694,213350,
255203,246721,218169,
255246,246719,244809,
255268,246735,219825,
255289,246748,213334,
255315,246759,238216,
255340,246764,231359,
255365,246762,212104,
255396,246786,226787,
255438,246800,240243,
255475,246817,213258,
255509,246827,218770,
255534,246843,244548,
255576,246864,218825,
255625,246879,214121,
255663,246912,238467,
255696,246920,229849,
255741,246949,212358,
255782,246949,228260,
255815,246968,240886,
255844,246995,213317,
255880,246994,219360,
255920,247007,244424,
255945,247023,218597,
255969,247029,214609,
256019,247032,239215,
256014,247045,228965,
256070,247050,213006,
256080,247060,229333,
256118,247076,239787,
256131,247086,212935,
256178,247094,220190,
256169,247088,245184,
256221,247101,218158,
256239,247111,214451,
256247,247126,240017,
256258,247141,228085,
256275,247138,212578,
256308,247162,229543,
256332,247141,238930,
256348,247154,212782,
256377,247170,220594,
256383,247174,244967,
256416,247181,218187,
256423,247169,215560,
256435,247198,241686,
256467,247191,228432,
256439,247181,214196,
256473,247199,232225,
256465,247186,239453,
256506,247196,212986,
256509,247219,220137,
256545,247217,243472,
256572,247244,215469,
256610,247250,213191,
256634,247264,240259,
256643,247259,224934,
256670,247282,211566,
256700,247283,231552,
256706,247273,238424,
256752,247310,212467,
256751,247300,221584,
256782,247309,243919,
256774,247303,216159,
256787,247318,215392,
256807,247332,242084,
256838,247325,225472,
256836,247336,212622,
256840,247353,232505,
256872,247337,237513,
256918,247358,212364,
256937,247355,222464,
256940,247392,244234,
256976,247382,215601,
256999,247404,215610,
257032,247423,242026,
257067,247414,223892,
257103,247438,212664,
257115,247442,233568,
257131,247459,236478,
257190,247469,212213,
257232,247483,222567,
257229,247499,243441,
257298,247529,215244,
257343,247535,215851,
257369,247546,242766,
257412,247553,223040,
257458,247584,213157,
257498,247604,234534,
257512,247616,235620,
257556,247624,212295,
257590,247638,223720,
257629,247655,243253,
257648,247674,215186,
257684,247679,217066,
257698,247679,244476,
257677,247664,223397,
257637,247651,213487,
257604,247641,235539,
257542,247600,235243,
257442,247534,212966,
257348,247486,225119,
257217,247423,243477,
257051,247363,215560,
256928,247284,217981,
256759,247204,244664,
256582,247119,222229,
256409,247033,213760,
256250,246959,236480,
256061,246876,233771,
255891,246789,212532,
255728,246715,225337,
255559,246645,241790,
255379,246552,213836,
255252,246496,217260,
255102,246422,245060,
254949,246344,221002,
254838,246288,212985,
254735,246250,236604,
254599,246175,232560,
254498,246145,211467,
254403,246083,224940,
254307,246042,240807,
254212,246005,212678,
254130,245961,217019,
254070,245928,244485,
254010,245898,219469,
253959,245853,212741,
253892,245822,237824,
253852,245807,231999,
253807,245785,211222,
253799,245773,225656,
253761,245762,240366,
253763,245760,212450,
253766,245756,217499,
253755,245750,244925,
253755,245757,218748,
253762,245760,212443,
253802,245754,237807,
253799,245755,230391,
253823,245776,211025,
253845,245784,226816,
253880,245787,240668,
253900,245783,212320,
253931,245803,218130,
253972,245821,244074,
253985,245820,217461,
254011,245828,212783,
254071,245851,237845,
254116,245870,228421,
254140,245884,211003,
254189,245910,227263,
254211,245908,239440,
254264,245952,211756,
254298,245963,218454,
254346,245985,244782,
254379,245997,217461,
254420,245989,212791,
254430,246008,239048,
254473,246022,227359,
254503,246035,210890,
254531,246045,228194,
254558,246055,238180,
254564,246061,211215,
254585,246077,219094,
254585,246079,244022,
254593,246063,216447,
254580,246068,213325,
254578,246057,240194,
254581,246065,226974,
254572,246049,211156,
254552,246041,229427,
254518,246027,238343,
254498,246011,211483,
254497,246004,219575,
254448,246000,243931,
254413,245970,215737,
254389,245959,213486,
254357,245945,240779,
254303,245917,225823,
254261,245905,211306,
254251,245897,230587,
254220,245873,238521,
254183,245859,211982,
254160,245845,220414,
254139,245837,244201,
254111,245821,215269,
254107,245822,213923,
254107,245814,241125,
254092,245803,224827,
254083,245803,211731,
254079,245811,231765,
254070,245792,237462,
254068,245807,211440,
254085,245798,221356,
254069,245789,244458,
254067,245779,215135,
254056,245788,214821,
254060,245774,242138,
254043,245758,224106,
254025,245780,211746,
254067,245773,232657,
254064,245777,236679,
254080,245778,211541,
254090,245792,222141,
254083,245789,243853,
254111,245790,214795,
254138,245773,215177,
254162,245809,242831,
254169,245799,224075,
254174,245802,212482,
254203,245804,234145,
254202,245801,236798,
254228,245836,212219,
254246,245837,223286,
254255,245829,243948,
254262,245827,215217,
254285,245842,216945,
254316,245846,243903,
254331,245851,223196,
254343,245858,213177,
254326,245859,235317,
254372,245865,235278,
254393,245866,211839,
254391,245869,223741,
254435,245867,243066,
254429,245879,214676,
254467,245887,216964,
254464,245908,244313,
254507,245910,222434,
254526,245899,213605,
254544,245907,236088,
254571,245906,234118,
254579,245936,211980,
254622,245944,224263,
254660,245965,242069,
254673,245969,213994,
254712,245981,217425,
254766,246004,245208,
254788,246030,221790,
254823,246030,213883,
254856,246038,238164,
254884,246073,235123,
254925,246088,213633,
254967,246087,226162,
255000,246104,241770,
255018,246119,212502,
255050,246136,215673,
255088,246169,243469,
255108,246176,218377,
255158,246186,211744,
255200,246224,237061,
255222,246229,232291,
255275,246245,212178,
255313,246254,227094,
255372,246274,242351,
255389,246295,213498,
255439,246318,218170,
255463,246343,245504,
255495,246327,219778,
255513,246365,213861,
255539,246352,238290,
255552,246352,231187,
255589,246369,212178,
255583,246401,227714,
255614,246382,241563,
255638,246391,213322,
255690,246399,219080,
255724,246428,246213,
255738,246434,219656,
255777,246451,214190,
255810,246462,239492,
255842,246485,229982,
255877,246492,212436,
255916,246520,228025,
255952,246520,239755,
256006,246548,212256,
256032,246547,218313,
256052,246574,244614,
256119,246574,217067,
256122,246588,212751,
256168,246605,238939,
256215,246613,228143,
256265,246641,210692,
256289,246662,227826,
256324,246680,238744,
256362,246683,211232,
256389,246680,218284,
256387,246693,243757,
256374,246680,216385,
256362,246665,213583,
256325,246636,240412,
256235,246597,227440,
256155,246571,211443,
256065,246505,229429,
255941,246449,239360,
255790,246403,212097,
255661,246320,219961,
255520,246238,245114,
255353,246153,216663,
255174,246077,213792,
255004,245984,241089,
254798,245901,226598,
254642,245826,210660,
254450,245750,229636,
254266,245642,237661,
254076,245554,210064,
253890,245480,218221,
253707,245386,242906,
253529,245304,213297,
253360,245230,211627,
253207,245154,239559,
253045,245070,223647,
252918,245006,209197,
252758,244945,229567,
252656,244881,236344,
252527,244834,209538,
252437,244790,219369,
252302,244738,243783,
252234,244698,213565,
252156,244660,212305,
252078,244633,240226,
252010,244592,223008,
251927,244568,210189,
251905,244523,231081,
251838,244512,235918,
251811,244491,210034,
251778,244452,220608,
251749,244436,243925,
251732,244442,213374,
251720,244427,213315,
251727,244419,241162,
251723,244415,222111,
251718,244420,210291,
251717,244426,231669,
251741,244433,235024,
251742,244435,210563,
251773,244432,221613,
251779,244432,242898,
251766,244434,213301,
251760,244441,214687,
251777,244439,243146,
251840,244446,222076,
251839,244452,211429,
251864,244456,233797,
251896,244478,234708,
251940,244496,211510,
251970,244520,223337,
252021,244540,242862,
252049,244554,214052,
252090,244564,216046,
252106,244580,243696,
252157,244587,221899,
252181,244599,212279,
252218,244611,235701,
252227,244627,235100,
252234,244614,211839,
252248,244636,223900,
252268,244633,242352,
252252,244633,213388,
252268,244636,216592,
252273,244664,244123,
252291,244644,221240,
252269,244650,212879,
252255,244659,237177,
252262,244645,234888,
252266,244648,212257,
252270,244669,225393,
252279,244650,242712,
252285,244675,213661,
252268,244664,217274,
252292,244675,245344,
252287,244680,220816,
252281,244676,213512,
252313,244674,237658,
252282,244677,233047,
252281,244669,212400,
252276,244679,226407,
252261,244658,242428,
252236,244650,213749,
252218,244642,218329,
252199,244643,246386,
252239,244639,220483,
252219,244629,213987,
252224,244637,238846,
252233,244641,232276,
252251,244656,212479,
252232,244660,227317,
252254,244646,241672,
252289,244670,213536,
252301,244683,219190,
252302,244698,246048,
252351,244685,219553,
252363,244708,214090,
252379,244703,239300,
252385,244715,230846,
252414,244723,212664,
252465,244746,228534,
252476,244744,241406,
252490,244753,213370,
252506,244772,219687,
252532,244772,246305,
252546,244762,219078,
252568,244767,214611,
252600,244785,240272,
252613,244795,229910,
252656,244794,213271,
252651,244802,229923,
252663,244803,241020,
252703,244815,213874,
252736,244821,220754,
252741,244836,245992,
252752,244853,219517,
252772,244852,215625,
252790,244850,241972,
252809,244842,229808,
252849,244856,213352,
252875,244871,230725,
252900,244895,240044,
252907,244911,213250,
252921,244923,221246,
252952,244920,246415,
252980,244923,218225,
253016,244939,215685,
253042,244959,242265,
253038,244945,228391,
253090,244957,213529,
253107,244964,232285,
253125,244962,240883,
253141,244991,214008,
253165,244993,221861,
253192,245018,245956,
253235,245016,218195,
253261,245031,216305,
253283,245052,242907,
253311,245065,228272,
253338,245091,215357,
253383,245085,234919,
253418,245111,241523,
253441,245118,214542,
253463,245126,222999,
253505,245153,246423,
253558,245161,215933,
253551,245192,214239,
253604,245211,240924,
253638,245217,224359,
253686,245245,212811,
253710,245244,233128,
253735,245261,237961,
253766,245285,213757,
253820,245315,224168,
253863,245304,246247,
253898,245352,217109,
253939,245369,217360,
254004,245394,244353,
254019,245428,225884,
254092,245426,214234,
254121,245447,235170,
254174,245480,237948,
254198,245498,213967,
254210,245504,224707,
254269,245506,246067,
254289,245536,217335,
254314,245538,218250,
254332,245564,245011,
254379,245579,225150,
254411,245593,214836,
254471,245613,236398,
254509,245636,237535,
254549,245654,214008,
254613,245667,225770,
254635,245704,244986,
254683,245711,216650,
254728,245736,218494,
254765,245730,245235,
254760,245747,224132,
254777,245747,215099,
254813,245760,237675,
254801,245744,236704,
254827,245737,214381,
254797,245735,226751,
254818,245712,244883,
254810,245728,216740,
254775,245696,219271,
254734,245689,246469,
254704,245671,224478,
254608,245614,216041,
254537,245582,238734,
254425,245532,235983,
254303,245463,214840,
254209,245401,227725,
254017,245315,244484,
253825,245227,216680,
253655,245126,220142,
253455,245026,246865,
253258,244939,223139,
253022,244826,216058,
252825,244721,239756,
252617,244628,234863,
252407,244530,213669,
252198,244440,227521,
251968,244343,243284,
251782,244263,215033,
251608,244162,219508,
251435,244097,246117,
251258,244015,220840,
251101,243931,214344,
250957,243878,238512,
250826,243815,232251,
250700,243749,212939,
250589,243705,227993,
250468,243652,242365,
250378,243623,213892,
250278,243562,219024,
250184,243519,246113,
250089,243464,219711,
250021,243444,214230,
249971,243407,239097,
249930,243388,230609,
249875,243369,212488,
249874,243365,228261,
249845,243363,241179,
249817,243344,213417,
249836,243359,219413,
249837,243356,246076,
249854,243358,218957,
249885,243379,214597,
249911,243390,241035,
249938,243396,230111,
249976,243423,212353,
250005,243439,228858,
250018,243455,239919,
250052,243444,212599,
250094,243476,219697,
250121,243477,245348,
250126,243485,218004,
250171,243508,214655,
250208,243534,240877,
250236,243531,228269,
250257,243569,212426,
250334,243581,230460,
250368,243585,240304,
250402,243610,212941,
250465,243626,220590,
250510,243657,245473,
250542,243678,217207,
250594,243702,214893,
250620,243724,241764,
250660,243737,227401,
250662,243740,212416,
250718,243759,230956,
250726,243757,239321,
250709,243768,212492,
250743,243752,220883,
250720,243768,244857,
250718,243746,216648,
250715,243751,215223,
250702,243746,242429,
250720,243756,226822,
250679,243752,213095,
250693,243750,232402,
250703,243754,238958,
250687,243756,212963,
250681,243769,222480,
250666,243771,245686,
250688,243768,216915,
250673,243763,216410,
250679,243765,243018,
250685,243776,225898,
250662,243771,213164,
250661,243756,233381,
250666,243766,238546,
250670,243769,213163,
250665,243751,223004,
250631,243747,244713,
250642,243753,215900,
250644,243749,216107,
250617,243752,242609,
250615,243749,224073,
250596,243727,212977,
250602,243751,234244,
250602,243741,236733,
250597,243740,212556,
250598,243734,224286,
250616,243737,245449,
250645,243757,215685,
250665,243754,216361,
250693,243756,243156,
250709,243789,223485,
250751,243784,213129,
250782,243806,234755,
250778,243804,235621,
250813,243817,212753,
250844,243845,224248,
250878,243845,244063,
250890,243860,215340,
250921,243871,217438,
250950,243877,244963,
250979,243893,223356,
251041,243909,213623,
251065,243927,236030,
251081,243932,235238,
251127,243961,212803,
251181,243989,225056,
251224,244002,243988,
251261,244011,215226,
251313,244019,217865,
251350,244049,245322,
251370,244056,222665,
251411,244079,214208,
251458,244100,237593,
251485,244121,235077,
251499,244125,212818,
251532,244143,225531,
251577,244143,242214,
251629,244154,214109,
251643,244167,217882,
251666,244208,245307,
251752,244218,221412,
251774,244232,213958,
251834,244270,238227,
251850,244257,233624,
251912,244282,212367,
251934,244309,226429,
251984,244325,242503,
252018,244324,213881,
252064,244345,218089,
252099,244367,245396,
252137,244395,220802,
252197,244422,215140,
252268,244457,239537,
252318,244488,233505,
252379,244527,214841,
252467,244586,229601,
252569,244615,242715,
252633,244684,213530,
252759,244732,218313,
252857,244777,244423,
252961,244840,217493,
253023,244881,212059,
253126,244928,237608,
253254,244993,229896,
253337,245045,212361,
253433,245083,228412,
253533,245136,242037,
253602,245186,215016,
253686,245234,221533,
253760,245256,247071,
253841,245279,220906,
253898,245310,216458,
253954,245343,241328,
253991,245360,231497,
254049,245395,214910,
254078,245402,231589,
254124,245409,243091,
254152,245429,215637,
254213,245455,222270,
254229,245464,247302,
254264,245473,220846,
254286,245496,217695,
254300,245486,242794,
254327,245491,230728,
254314,245501,215756,
254348,245494,232751,
254358,245490,242036,
254373,245483,216277,
254359,245471,223935,
254352,245476,248463,
254332,245457,221284,
254334,245449,218431,
254347,245455,243702,
254312,245454,230886,
254314,245445,216735,
254323,245443,233941,
254335,245446,241682,
254331,245452,216920,
254344,245450,224811,
254315,245440,247636,
254297,245447,220764,
254263,245424,219146,
254222,245391,245453,
254112,245370,230467,
254002,245272,216739,
253884,245223,235140,
253739,245144,242122,
253563,245052,217365,
253366,244955,226362,
253179,244857,247915,
252953,244762,220427,
252736,244648,219718,
252511,244555,245826,
252270,244438,229094,
252064,244330,216584,
251830,244240,236290,
251581,244105,240998,
251338,244006,215711,
251073,243885,224943,
250866,243772,245685,
250643,243637,218154,
250389,243528,218409,
250151,243425,243612,
249945,243301,225949,
249739,243205,215710,
249518,243126,236076,
249361,243023,238944,
249191,242924,214941,
249020,242870,225771,
248862,242783,246531,
248734,242735,217283,
248600,242653,218310,
248475,242608,244260,
248351,242551,224871,
248243,242514,214926,
248145,242461,236293,
248024,242402,237408,
247965,242383,214771,
247848,242327,226432,
247802,242271,245665,
247716,242261,217448,
247663,242222,219204,
247577,242189,245842,
247553,242186,225001,
247534,242182,215953,
247497,242141,237619,
247474,242141,236799,
247466,242153,215038,
247449,242127,227133,
247433,242127,245139,
247426,242119,216896,
247403,242121,219723,
247402,242101,246524,
247387,242099,224200,
247365,242086,215912,
247350,242054,238712,
247335,242070,236186,
247296,242065,214751,
247309,242072,227759,
247302,242056,244250,
247281,242057,216583,
247263,242045,220423,
247267,242041,247302,
247256,242049,223113,
247263,242044,215436,
247246,242041,239179,
247227,242030,235163,
247215,242032,214709,
247192,242031,228142,
247192,242021,244281,
247164,242016,216074,
247142,242007,220200,
247106,241998,247288,
247063,241983,222133,
247060,241979,215559,
246990,241958,239614,
246968,241947,233647,
246925,241934,214406,
246885,241916,229151,
246826,241889,242886,
246770,241873,215228,
246743,241862,220521,
246690,241841,246539,
246662,241847,221196,
246664,241850,215968,
246647,241838,241359,
246658,241830,232892,
246660,241870,214128,
246706,241867,229674,
246744,241907,241948,
246746,241920,214701,
246798,241954,220990,
246828,241972,246142,
246821,241978,219965,
246877,242003,215483,
246907,242003,240828,
246948,242024,230621,
246982,242044,213846,
247003,242077,230658,
247068,242101,241896,
247094,242129,214493,
247160,242130,221352,
247189,242169,246008,
247251,242204,218899,
247327,242249,215661,
247362,242261,241325,
247427,242299,229099,
247508,242316,213940,
247586,242375,231438,
247657,242405,240798,
247743,242456,214174,
247815,242483,221895,
247885,242522,247144,
247963,242558,218665,
248057,242589,216003,
248129,242634,242125,
248223,242660,228478,
248264,242691,213762,
248331,242730,231879,
248382,242761,240103,
248440,242784,214393,
248519,242818,222753,
248563,242832,246127,
248661,242877,218280,
248732,242908,216696,
248792,242964,243208,
248871,242991,227947,
248931,243030,213757,
249004,243058,232481,
249075,243093,238835,
249136,243121,213198,
249184,243142,222376,
249253,243168,244202,
249313,243209,216635,
249378,243226,216155,
249438,243247,243090,
249468,243275,226390,
249518,243297,213731,
249567,243311,233728,
249617,243332,238482,
249643,243348,213109,
249701,243373,223353,
249740,243385,244866,
249780,243392,216724,
249824,243418,217059,
249843,243420,243627,
249872,243450,226165,
249931,243470,215840,
249967,243497,236395,
250010,243503,238533,
250051,243524,213037,
250101,243549,223257,
250148,243573,243458,
250183,243578,214244,
250230,243594,215067,
250260,243621,242450,
250287,243634,222721,
250300,243645,212992,
250358,243652,235331,
250353,243661,236471,
250393,243691,213371,
250422,243682,225047,
250431,243687,244365,
250449,243718,215985,
250478,243721,218135,
250513,243721,245158,
250522,243730,223927,
250560,243732,214673,
250603,243728,237084,
250612,243764,236150,
250622,243774,213744,
250691,243783,226142,
250683,243780,244584,
250723,243800,215934,
250739,243836,218821,
250793,243840,245779,
250816,243843,223150,
250864,243866,214891,
250893,243873,238175,
250942,243901,235066,
250954,243931,213960,
250996,243944,227220,
251053,243959,243604,
251095,243979,215576,
251152,244000,219767,
251180,244016,246956,
251225,244055,222792,
251256,244039,215534,
251290,244061,239078,
251286,244065,234764,
251339,244057,214536,
251335,244067,228334,
251330,244047,243529,
251307,244025,216053,
251281,244013,220828,
251209,243995,247685,
251154,243951,222495,
251103,243914,216259,
250977,243843,240786,
250838,243817,234585,
250720,243724,214981,
250589,243673,229547,
250407,243587,242988,
250225,243506,216220,
250066,243410,221648,
249830,243307,246954,
249638,243219,221525,
249435,243115,216430,
249233,243025,241308,
249029,242915,232580,
248781,242807,214384,
248623,242734,230408,
248402,242620,243080,
248200,242528,214568,
248043,242449,220656,
247876,242353,245583,
247709,242292,218960,
247568,242227,214941,
247422,242157,240342,
247306,242109,229833,
247195,242038,213456,
247076,242014,229870,
247006,241970,241053,
246955,241946,213666,
246865,241915,220739,
246832,241894,245685,
246807,241880,218578,
246757,241869,215589,
246730,241860,241142,
246727,241862,228550,
246691,241847,213239,
246670,241856,230718,
246674,241847,240215,
246658,241843,213115,
246653,241854,220839,
246652,241853,245340,
246692,241848,217774,
246696,241871,215514,
246700,241859,242130,
246751,241892,228150,
246741,241892,213099,
246770,241910,231527,
246779,241916,239181,
246828,241938,213017,
246854,241967,221752,
246879,241964,245360,
246938,241994,217268,
246972,242021,215862,
247000,242051,242899,
247069,242071,227082,
247138,242084,213031,
247186,242117,232437,
247245,242150,238941,
247306,242179,213126,
247370,242210,222509,
247394,242241,244940,
247438,242242,216798,
247473,242266,216427,
247499,242274,243065,
247512,242295,225817,
247547,242281,213371,
247559,242297,233656,
247560,242296,238155,
247569,242304,212868,
247555,242292,222970,
247541,242306,244676,
247549,242287,216285,
247523,242279,216529,
247501,242289,243459,
247496,242259,224371,
247456,242266,212865,
247442,242247,234431,
247442,242236,237110,
247373,242225,212698,
247380,242234,223859,
247386,242226,244264,
247361,242204,215284,
247343,242211,216831,
247338,242218,243638,
247342,242207,223181,
247338,242213,213274,
247363,242225,235737,
247368,242230,236400,
247356,242242,212802,
247402,242246,224500,
247404,242256,243442,
247440,242269,214597,
247461,242285,217283,
247491,242282,244317,
247532,242318,222488,
247542,242313,213489,
247592,242342,236047,
247616,242359,234578,
247657,242377,212920,
247655,242380,225818,
247730,242414,244533,
247726,242419,215100,
247778,242443,218127,
247799,242435,245372,
247839,242469,222027,
247892,242486,214282,
247956,242530,237409,
248021,242544,234325,
248077,242559,213223,
248133,242589,226125,
248190,242631,242744,
248263,242672,214933,
248319,242700,218972,
248402,242744,246859,
248501,242759,222406,
248534,242802,214626,
248589,242823,238864,
248644,242849,234024,
248722,242868,213252,
248740,242901,227316,
248799,242930,242252,
248863,242941,214261,
248903,242979,219216,
248929,242977,245767,
248965,243018,220883,
249043,243032,214797,
249093,243064,238956,
249131,243077,232442,
249201,243102,212814,
249232,243133,227914,
249276,243149,242165,
249335,243172,214421,
249359,243187,220081,
249419,243209,245909,
249465,243239,220179,
249498,243248,215935,
249552,243262,240998,
249593,243275,232926,
249637,243317,215167,
249652,243341,230109,
249712,243364,241634,
249761,243378,212708,
249823,243384,218428,
249849,243419,244421,
249925,243441,217347,
249966,243482,213474,
250028,243489,239474,
250092,243527,229079,
250135,243582,213073,
250237,243597,230135,
250265,243625,241210,
250328,243644,214369,
250391,243692,221276,
250454,243726,245649,
250495,243760,218791,
250550,243781,215992,
250589,243792,241566,
250628,243808,229249,
250686,243844,213675,
250745,243870,231331,
250781,243889,241371,
250824,243921,214195,
250886,243933,221808,
250928,243961,246044,
250958,243956,218563,
250990,243986,216414,
251064,244027,242353,
251096,244034,228275,
251137,244059,214228,
251190,244071,232515,
251240,244099,240181,
251297,244128,214423,
251337,244152,223097,
251361,244155,246631,
251386,244174,218521,
251426,244180,216977,
251443,244170,243275,
251457,244178,227588,
251459,244154,214452,
251456,244169,233361,
251472,244167,239356,
251477,244156,214454,
251426,244142,223976,
251416,244120,246170,
251377,244086,218781,
251323,244082,218275,
251228,244020,245136,
251162,243962,228116,
251051,243912,215447,
250924,243849,235354,
250750,243781,239720,
250571,243679,215417,
250404,243607,225141,
250216,243491,245569,
250003,243402,217886,
249763,243309,218837,
249570,243184,245238,
249320,243071,226741,
249072,242941,215374,
248804,242832,236347,
248589,242707,238854,
248326,242598,214643,
248089,242490,225452,
247859,242376,245397,
247648,242275,216686,
247446,242170,217827,
247243,242090,244105,
247083,242014,224532,
246972,241954,214911,
246821,241893,236526,
246710,241849,237257,
246645,241803,214087,
246571,241783,225729,
246519,241769,244758,
246471,241734,216589,
246438,241731,218565,
246401,241726,245392,
246394,241735,223908,
246393,241709,215002,
246366,241724,237112,
246379,241716,236093,
246408,241745,214221,
246406,241734,226474,
246444,241758,244558,
246487,241795,215880,
246524,241803,218932,
246593,241836,246371,
246639,241871,223440,
246734,241892,215161,
246799,241938,238253,
246837,241964,235737,
246891,242000,214317,
246952,242041,227078,
247044,242057,243603,
247079,242080,215495,
247148,242130,219485,
247223,242169,246693,
247288,242201,222668,
247387,242238,215647,
247460,242267,239213,
247537,242319,234103,
247611,242354,214044,
247689,242388,228488,
247755,242419,244247,
247812,242461,215514,
247866,242485,220012,
247962,242516,247462,
247979,242537,222207,
248010,242540,215887,
248050,242561,239789,
248083,242575,233053,
248077,242573,214242,
248094,242575,229070,
248103,242576,242460,
248093,242556,214957,
248116,242569,220391,
248118,242575,246607,
248109,242588,220948,
248111,242590,216070,
248132,242589,240865,
248118,242593,231797,
248111,242585,213951,
248100,242585,229898,
248080,242589,241992,
248073,242578,214769,
248044,242561,221050,
248019,242541,245905,
247997,242543,219744,
248002,242531,216005,
247965,242530,241286,
247953,242535,230496,
247952,242521,213746,
247930,242528,230519,
247937,242524,241322,
247933,242530,214279,
247946,242544,221130,
247961,242545,245169,
247956,242550,218564,
247997,242546,215575,
247992,242562,241278,
248005,242562,228579,
248040,242573,213379,
248038,242589,231143,
248058,242597,240437,
248077,242600,213259,
248104,242613,221512,
248123,242614,245638,
248130,242643,217373,
248168,242640,215073,
248200,242655,241292,
248203,242668,227035,
248251,242687,212859,
248297,242697,231752,
248342,242720,239510,
248361,242738,212951,
248417,242768,221792,
248467,242776,245192,
248497,242804,216748,
248568,242840,215512,
248630,242857,242379,
248681,242862,226514,
248706,242899,213017,
248755,242921,232286,
248810,242940,238571,
248865,242957,212635,
248912,242966,222096,
248949,243004,244760,
248988,243013,215992,
249009,243027,215267,
249055,243026,242167,
249102,243061,225022,
249111,243066,212492,
249185,243100,232833,
249231,243110,237156,
249256,243113,212065,
249277,243122,222761,
249294,243142,243834,
249337,243148,215214,
249382,243171,215932,
249417,243183,242788,
249448,243195,224033,
249470,243193,212919,
249510,243198,234319,
249527,243206,237167,
249525,243228,213743,
249538,243217,224867,
249564,243235,244552,
249607,243235,215112,
249638,243248,215420,
249643,243262,242594,
249695,243281,220879,
249697,243280,210189,
249741,243306,233251,
249783,243309,234057,
249832,243349,210936,
249852,243366,223605,
249907,243363,243035,
249951,243384,214207,
249998,243420,216792,
250057,243443,244499,
250082,243459,222369,
250143,243488,213075,
250208,243513,236378,
250223,243554,234911,
250287,243551,212221,
250327,243598,224686,
250383,243631,243026,
250425,243647,214346,
250470,243682,217511,
250502,243701,244831,
250566,243707,221220,
250607,243724,213560,
250635,243749,237639,
250681,243762,234296,
250732,243777,212540,
250760,243803,226079,
250780,243825,242876,
250819,243841,213789,
250852,243838,218128,
250866,243853,245074,
250886,243861,220674,
250916,243859,214018,
250930,243868,238063,
250935,243867,232653,
250972,243864,212844,
250964,243872,227327,
250956,243843,242884,
250974,243855,214140,
250964,243839,219231,
250954,243838,246333,
250914,243819,220584,
250889,243797,214437,
250821,243766,238624,
250760,243731,231475,
250684,243658,213365,
250543,243626,228667,
250420,243537,242281,
250260,243470,214271,
250068,243381,220222,
249863,243283,246405,
249642,243175,220115,
249430,243074,215421,
249194,242943,240463,
248937,242839,230817,
248683,242692,213124,
248412,242573,229439,
248179,242482,240774,
247931,242344,213777,
247688,242226,220233,
247485,242121,245181,
247248,242019,217795,
247077,241947,213927,
246878,241857,240235,
246727,241788,228564,
246592,241733,211900,
246488,241679,229309,
246349,241618,239927,
246242,241594,211988,
246175,241547,219608,
246088,241516,244921,
246055,241490,216854,
245981,241465,213781,
245944,241453,240697,
245919,241452,227210,
245859,241445,211230,
245853,241426,230042,
245832,241417,239431,
245825,241425,211931,
245819,241410,220190,
245824,241440,244911,
245836,241450,216938,
245877,241461,214897,
245885,241480,241723,
245922,241509,226733,
245962,241533,212164,
246023,241548,231089,
246050,241565,238843,
246098,241598,212266,
246116,241610,221388,
246182,241635,244446,
246181,241640,216340,
246231,241656,215375,
246243,241670,242622,
246301,241694,226257,
246343,241717,212484,
246416,241746,232546,
246443,241786,238907,
246522,241802,212497,
246598,241829,221978,
246647,241865,243991,
246731,241902,215542,
246785,241920,215437,
246844,241944,242193,
246899,241977,224388,
246927,241992,212603,
246978,242015,233886,
247012,242029,237935,
247026,242024,212312,
247029,242037,223256,
247039,242036,244306,
247037,242042,215180,
247043,242040,215936,
247033,242031,242948,
247009,242023,223524,
246995,242011,213243,
247002,241999,235066,
246991,242007,236905,
246999,241983,212262,
246965,241982,223945,
246936,241988,244451,
246941,241971,214779,
246929,241973,216468,
246914,241966,243917,
246900,241971,222549,
246902,241956,212954,
246870,241947,235419,
246879,241935,235197,
246853,241927,211867,
246846,241936,224610,
246840,241926,244008,
246836,241937,214724,
246831,241922,217184,
246847,241928,244955,
246867,241947,222029,
246870,241923,213010,
246889,241953,236702,
246908,241955,234452,
246928,241964,212239,
246942,241957,225304,
246975,241977,242939,
247009,241992,213808,
247028,242023,217702,
247083,242022,245605,
247091,242051,221120,
247124,242056,213089,
247168,242086,237539,
247217,242086,233682,
247259,242104,212055,
247312,242147,225927,
247347,242152,241851,
247424,242179,213673,
247470,242234,218467,
247558,242256,246191,
247630,242303,220751,
247735,242325,213765,
247801,242371,238368,
247920,242426,232632,
247975,242457,212381,
248051,242484,227259,
248130,242514,242702,
248191,242567,213989,
248264,242598,219218,
248345,242613,246114,
248388,242665,219773,
248496,242684,213963,
248558,242728,239469,
248631,242758,231525,
248704,242787,212244,
248785,242825,227956,
248863,242853,241310,
248916,242881,213058,
248974,242909,219226,
249038,242946,245855,
249094,242978,218883,
249175,242992,214074,
249244,243041,239958,
249329,243072,229662,
249418,243126,211359,
249500,243154,229027,
249607,243218,241070,
249667,243248,212326,
249758,243294,219156,
249827,243311,245007,
249906,243361,218435,
249971,243389,215389,
250048,243418,241985,
250103,243442,230609,
250169,243475,212889,
250227,243500,229517,
250275,243532,239042,
250321,243544,210190,
250366,243565,217644,
250438,243584,243495,
250466,243606,215165,
250538,243641,213018,
250581,243660,240893,
250629,243671,227270,
250654,243693,212053,
250711,243717,231489,
250736,243731,240214,
250819,243751,212614,
250830,243774,220908,
250885,243790,245460,
250939,243807,217315,
250959,243826,215483,
251031,243857,242531,
251036,243862,227141,
251068,243863,213224,
251130,243877,232789,
251146,243899,239876,
251177,243912,213389,
251213,243929,222861,
251261,243944,246642,
251294,243947,217131,
251326,243984,215678,
251376,244010,242696,
251416,244012,226273,
251447,244038,213720,
251483,244048,233702,
251529,244062,238951,
251553,244072,213503,
251562,244068,223500,
251598,244099,245980,
251620,244085,216799,
251612,244100,216902,
251651,244098,244345,
251665,244100,225635,
251714,244111,213864,
251718,244130,234442,
251736,244132,237826,
251734,244130,213537,
251768,244134,224639,
251740,244129,245607,
251715,244114,216782,
251682,244118,218013,
251630,244103,245078,
251550,244030,225084,
251447,243966,214394,
251313,243913,236720,
251150,243830,238060,
251000,243762,213086,
250825,243687,224643,
250638,243589,244617,
250463,243509,215510,
250255,243410,217616,
250039,243304,245417,
249827,243191,223834,
249615,243102,213313,
249389,243004,236295,
249187,242901,235545,
249000,242823,211564,
248826,242716,224074,
248659,242646,243068,
248488,242550,213561,
248339,242490,216018,
248194,242433,244429,
248074,242378,221128,
247945,242316,212050,
247847,242268,236144,
247743,242225,233980,
247671,242190,210815,
247587,242157,224299,
247504,242123,242467,
247441,242103,212803,
247395,242073,216582,
247350,242032,244605,
247322,242031,219686,
247257,242023,211795,
247241,242001,236793,
247230,242004,232627,
247215,241993,210658,
247190,241992,224928,
247161,241987,241484,
247175,241981,212180,
247178,241978,216782,
247183,241981,244951,
247177,241983,218912,
247184,241983,211989,
247192,241986,237540,
247197,241969,231899,
247204,241993,210668,
247227,241994,226076,
247212,241995,241478,
247239,241996,211581,
247255,242008,217294,
247291,242025,245322,
247319,242030,217901,
247363,242059,211969,
247380,242060,238324,
247426,242082,229542,
247466,242087,209985,
247502,242108,226638,
247537,242136,240147,
247591,242161,211040,
247626,242167,217474,
247665,242205,243877,
247701,242216,216914,
247749,242235,212186,
247801,242260,238555,
247805,242268,227775,
247838,242278,210153,
247864,242290,227938,
247855,242302,240442,
247857,242296,210789,
247851,242287,217794,
247858,242287,244182,
247828,242288,215698,
247811,242273,212357,
247778,242271,239756,
247775,242259,226919,
247754,242245,210474,
247748,242237,228602,
247760,242239,238656,
247746,242238,210492,
247739,242249,218877,
247775,242257,245045,
247787,242277,215548,
247830,242290,212629,
247861,242325,240675,
247912,242354,225968,
247961,242363,210104,
248020,242396,229555,
248049,242439,237744,
248110,242441,210447,
248142,242488,219214,
248211,242501,244314,
248260,242517,214561,
248312,242577,212850,
248329,242579,241692,
248412,242592,225355,
248452,242638,210144,
248521,242662,230247,
248573,242707,237167,
248648,242725,210525,
248717,242763,220283,
248763,242785,243394,
248844,242822,213909,
248909,242868,213109,
248950,242866,241967,
248991,242892,224079,
249071,242924,210562,
249117,242947,232344,
249169,242955,237226,
249226,242980,210292,
249264,243013,220640,
249317,243028,242967,
249390,243068,213528,
249449,243091,213922,
249519,243127,241772,
249593,243143,222746,
249624,243174,211450,
249686,243206,233730,
249748,243208,236532,
249808,243236,210472,
249846,243256,221992,
249879,243274,243756,
249900,243270,213235,
249936,243280,214637,
249965,243281,242253,
249970,243313,221023,
249997,243293,210899,
250006,243319,234725,
250020,243315,235309,
250054,243315,210240,
250067,243320,222605,
250086,243344,243348,
250132,243326,212876,
250155,243336,214791,
250198,243374,243454,
250243,243404,220517,
250271,243406,211611,
250315,243432,235634,
250354,243459,234145,
250394,243474,211412,
250429,243474,225301,
250442,243467,243938,
250461,243498,213202,
250498,243479,215331,
250512,243491,244139,
250524,243508,218628,
250541,243501,209196,
250588,243524,234826,
250600,243536,232163,
250646,243570,208582,
250687,243576,223096,
250727,243598,241716,
250781,243619,211739,
250806,243650,216235,
250884,243672,245541,
250917,243708,219543,
250953,243723,211635,
251018,243723,237254,
251034,243752,232541,
251070,243764,210147,
251116,243787,224893,
251183,243813,240980,
251214,243831,212184,
251209,243843,217233,
251263,243854,244480,
251295,243871,218405,
251360,243902,212291,
251395,243905,237860,
251470,243955,230957,
251521,243969,210741,
251561,244002,226334,
251617,244005,240947,
251661,244043,211877,
251734,244071,217978,
251789,244083,245102,
251826,244112,217975,
251886,244127,212557,
251933,244138,239158,
251951,244155,230329,
251985,244170,211138,
252007,244186,227722,
252038,244215,240584,
252074,244218,212115,
252108,244227,218894,
252132,244219,245772,
252142,244216,217783,
252128,244212,213159,
252127,244192,240252,
252077,244192,229198,
252052,244158,211634,
251954,244109,229947,
251880,244073,241529,
251793,243996,212257,
251659,243948,219794,
251481,243863,245868,
251319,243775,217625,
251131,243702,214410,
250944,243596,241656,
250749,243501,228677,
250539,243392,211630,
250314,243283,230161,
250106,243175,240317,
249879,243073,211886,
249647,242977,219670,
249438,242853,245350,
249231,242780,215674,
249032,242655,213205,
248859,242579,241611,
248635,242473,226509,
248492,242385,210778,
248300,242320,230221,
248168,242243,238769,
248034,242188,210212,
247902,242109,219929,
247793,242069,245188,
247687,242010,214479,
247602,241975,212965,
247546,241952,241356,
247469,241911,224585,
247410,241894,210191,
247401,241899,230645,
247371,241876,236626,
247358,241866,209859,
247342,241893,220565,
247362,241875,244330,
247366,241876,213943,
247401,241897,213806,
247401,241924,242504,
247459,241925,223870,
247501,241945,210104,
247533,241970,232043,
247568,241983,236669,
247603,242000,210150,
247607,242002,221079,
247640,242033,243413,
247668,242028,213339,
247714,242048,214023,
247708,242050,242992,
247713,242057,222823,
247769,242087,210573,
247817,242076,233850,
247852,242110,236147,
247897,242138,210061,
247940,242155,222248,
248018,242203,243256,
248075,242230,212712,
248144,242266,214393,
248217,242299,242936,
248315,242332,221389,
248370,242377,211105,
248395,242415,235238,
248467,242435,235549,
248506,242458,210074,
248554,242473,222811,
248550,242463,243234,
248590,242486,212552,
248577,242487,214869,
248578,242477,243685,
248587,242474,220426,
248571,242474,211220,
248594,242495,235507,
248566,242480,234002,
248562,242475,210762,
248557,242477,224126,
248568,242477,242977,
248555,242473,211913,
248566,242472,215653,
248549,242478,245347,
248573,242479,220540,
248546,242481,212107,
248527,242473,236960,
248534,242461,232813,
248545,242485,210259,
248521,242470,224308,
248519,242466,241763,
248511,242463,212066,
248515,242459,216658,
248508,242464,245788,
248522,242481,219390,
248529,242467,211943,
248516,242472,237809,
248552,242474,231924,
248583,242490,210297,
248601,242510,225233,
248618,242501,240829,
248641,242543,211767,
248676,242544,217315,
248711,242572,245603,
248759,242572,218262,
248781,242622,212125,
248826,242632,239092,
248868,242637,231473,
248902,242651,210058,
248954,242652,226702,
248968,242686,241186,
249011,242698,211438,
249052,242712,217494,
249103,242747,244888,
249140,242754,217557,
249191,242789,212452,
249256,242813,239162,
249314,242844,229387,
249357,242856,210186,
249411,242886,227975,
249456,242900,241094,
249505,242930,211870,
249558,242949,218901,
249592,242963,245583,
249633,242973,216933,
249655,242995,212912,
249689,243008,240690,
249709,243034,228466,
249756,243020,210919,
249789,243054,229168,
249823,243063,239915,
249882,243073,211048,
249930,243094,219132,
249956,243114,245297,
249998,243126,215726,
250048,243147,212778,
250081,243183,241019,
250122,243194,227102,
250166,243209,210772,
250184,243196,230076,
250176,243203,239346,
250227,243206,210610,
250232,243218,219680,
250259,243211,245506,
250270,243243,216030,
250291,243219,213698,
250291,243237,242292,
250300,243238,226887,
250332,243235,212343,
250323,243227,232806,
250349,243246,239709,
250380,243243,211326,
250410,243260,219994,
250435,243290,244031,
250458,243273,212438,
250486,243291,211486,
250530,243311,240845,
250537,243303,223903,
250575,243345,210120,
250617,243354,231324,
250641,243363,237314,
250667,243387,210559,
250701,243382,221401,
250712,243388,244725,
250730,243389,214663,
250736,243406,214642,
250782,243423,243846,
250763,243413,224722,
250811,243430,211514,
250831,243438,233441,
250840,243451,237299,
250852,243439,210881,
250886,243459,222171,
250910,243458,244133,
250915,243457,213849,
250949,243490,215030,
250946,243487,243448,
251005,243497,222932,
251027,243520,211634,
251065,243510,235129,
251076,243523,236731,
251084,243547,211070,
251114,243552,223343,
251151,243560,244167,
251145,243578,213866,
251203,243575,215744,
251227,243585,244608,
251233,243599,222394,
251255,243598,212353,
251285,243613,236654,
251305,243624,236191,
251298,243625,211364,
251324,243617,224685,
251325,243630,244718,
251344,243620,214529,
251321,243588,216953,
251291,243573,245896,
251246,243554,222434,
251182,243506,213763,
251077,243483,237935,
251004,243429,235136,
250865,243363,212515,
250725,243290,226359,
250595,243219,244391,
250417,243138,214425,
250254,243051,218573,
250083,242969,247522,
249891,242892,221913,
249725,242778,213565,
249536,242714,238808,
249338,242614,234349,
249150,242524,211231,
248951,242453,225730,
248799,242351,242044,
248622,242278,212242,
248460,242203,217197,
248306,242148,246185,
248179,242077,219110,
248060,242033,212250,
247938,241974,238224,
247829,241936,231747,
247753,241894,210653,
247681,241851,226328,
247604,241826,241573,
247558,241790,211433,
247527,241786,217008,
247448,241771,245227,
247430,241764,218155,
247415,241747,212495,
247392,241748,239339,
247390,241747,230621,
247392,241765,210222,
247400,241753,227047,
247440,241759,240792,
247464,241784,210853,
247488,241806,217868,
247524,241816,245561,
247564,241849,217246,
247617,241867,211926,
247672,241892,239202,
247700,241904,228521,
247743,241919,209989,
247767,241952,228081,
247791,241954,240683,
247848,241984,211243,
247875,241982,218305,
247903,241995,245293,
247943,242023,216183,
247998,242040,212515,
248026,242052,241245,
248077,242055,228597,
248105,242087,210411,
248164,242111,229204,
248186,242138,239664,
248238,242165,210789,
248251,242151,219255,
248294,242185,245043,
248315,242192,215451,
248330,242183,212928,
248368,242210,241317,
248377,242213,226282,
248400,242197,210313,
248412,242211,230135,
248403,242218,239016,
248403,242214,210430,
248379,242202,220048,
248387,242192,246050,
248382,242187,215036,
248331,242186,213186,
248349,242171,241983,
248316,242163,225071,
248286,242154,210242,
248286,242142,231081,
248270,242155,237859,
248256,242135,210116,
248264,242131,220325,
248241,242131,244420,
248196,242126,213923,
248221,242132,213837,
248198,242123,243154,
248221,242142,224559,
248223,242133,210660,
248203,242143,232408,
248228,242162,237207,
248240,242146,210272,
248250,242167,221359,
248247,242159,244259,
248279,242171,213509,
248267,242156,213958,
248288,242156,242453,
248296,242186,222983,
248348,242165,210827,
248320,242188,234148,
248352,242208,237013,
248385,242222,209948,
248406,242230,222107,
248448,242257,244321,
248501,242282,212975,
248560,242301,214026,
248638,242342,242907,
248695,242367,221772,
248769,242406,211434,
248828,242440,234715,
248930,242478,235297,
248975,242516,209931,
249068,242550,222451,
249122,242569,243701,
249165,242616,212627,
249230,242643,214994,
249282,242673,244796,
249343,242698,221605,
249390,242718,211095,
249459,242737,235711,
249514,242762,234773,
249581,242788,210336,
249617,242821,223606,
249679,242855,243100,
249766,242882,212700,
249840,242910,216109,
249876,242941,245516,
249950,242965,220878,
250007,243000,211448,
250070,243029,236376,
250119,243059,233342,
250196,243082,209729,
250273,243111,224016,
250305,243117,242077,
250361,243143,211838,
250397,243171,215899,
250451,243189,245445,
250460,243219,219689,
250535,243227,211677,
250560,243234,237422,
250601,243267,232131,
250659,243280,210016,
250665,243300,225082,
250705,243301,242405,
250734,243306,212382,
250767,243321,217692,
250809,243332,246693,
250840,243353,220186,
250871,243350,213809,
250880,243388,239259,
250921,243371,230887,
250949,243371,209008,
250973,243382,224554,
250981,243379,240036,
251009,243406,209187,
251033,243409,215820,
251038,243417,244529,
251078,243418,216573,
251097,243436,211963,
251098,243442,239933,
251147,243463,230598,
251151,243469,210540,
251190,243453,227851,
251212,243468,241487,
251243,243487,211151,
251242,243476,217860,
251238,243474,245819,
251254,243500,217059,
251257,243492,212827,
251289,243483,240266,
251301,243495,228662,
251309,243512,210359,
251326,243503,228865,
251342,243525,241376,
251355,243534,211365,
251381,243545,218866,
251431,243562,246577,
251461,243569,217338,
251481,243582,212960,
251500,243582,241122,
251553,243584,227839,
251579,243621,210550,
251604,243612,229535,
251625,243621,239899,
251632,243643,211181,
251677,243646,219646,
251687,243635,245951,
251689,243657,216244,
251741,243658,213572,
251741,243678,242892,
251774,243667,227963,
251781,243673,211511,
251808,243695,231166,
251804,243682,239858,
251810,243662,211933,
251758,243664,221010,
251707,243648,245530,
251670,243593,215820,
251593,243568,214584,
251479,243516,243952,
251364,243442,227543,
251210,243378,211730,
251061,243285,232963,
250873,243208,240320,
250714,243111,212211,
250518,243032,222010,
250321,242923,246070,
250100,242826,215612,
249903,242749,215195,
249700,242634,243219,
249459,242529,224714,
249286,242433,211252,
249095,242338,233235,
248870,242240,238471,
248696,242144,210599,
248514,242079,221705,
248334,241980,245157,
248177,241910,213603,
248025,241847,213988,
247880,241772,243335,
247771,241725,222903,
247667,241670,210583,
247575,241630,233566,
247502,241591,236239,
247437,241575,209863,
247409,241530,221898,
247328,241505,244515,
247305,241495,213372,
247274,241479,214507,
247257,241480,243518,
247264,241490,221525,
247261,241487,210674,
247296,241512,234778,
247314,241524,235691,
247378,241545,209995,
247413,241568,222717,
247493,241600,243575,
247551,241637,212240,
247594,241683,214843,
247663,241715,244348,
247741,241756,220228,
247822,241768,210739,
247886,241827,235640,
247941,241851,234327,
248018,241893,209852,
248078,241908,223556,
248159,241946,243012,
248236,241995,211893,
248305,242002,215321,
248393,242076,245948,
248487,242114,220398,
248547,242141,210983,
248621,242172,236514,
248701,242202,233554,
248792,242235,209605,
248818,242269,224173,
248873,242296,242117,
248917,242312,211683,
248956,242340,216245,
248999,242343,245208,
249007,242369,218939,
249016,242351,211522,
249020,242365,238471,
249043,242350,233307,
249031,242360,209697,
249039,242356,225322,
249034,242342,242474,
249013,242342,211288,
249016,242328,216696,
248998,242321,245576,
248969,242307,218272,
248950,242298,211900,
248965,242306,238313,
248934,242288,231021,
248959,242281,209853,
248924,242269,226409,
248916,242288,241720,
248923,242281,211207,
248915,242279,217629,
248932,242277,246199,
248923,242291,217303,
248926,242283,211613,
248898,242294,239222,
248900,242286,229353,
248920,242295,209553,
248927,242297,227986,
248935,242297,242176,
248970,242302,210765,
248988,242327,217874,
249008,242333,245769,
249076,242373,216374,
249112,242392,211751,
249175,242431,240445,
249205,242441,228396,
249255,242470,209850,
249310,242502,228108,
249387,242529,239429,
249437,242555,210142,
249474,242564,218098,
249519,242598,245447,
249571,242642,215922,
249636,242639,212638,
249655,242672,241857,
249709,242682,227459,
249751,242715,210356,
249833,242751,229969,
249892,242765,239745,
249924,242776,210824,
249984,242811,219358,
250063,242860,245583,
250123,242878,215591,
250206,242894,212870,
250262,242937,241439,
250314,242959,225632,
250367,242989,210051,
250427,243008,230678,
250477,243029,238895,
250504,243041,209983,
250553,243063,219898,
250588,243066,245120,
250657,243089,214272,
250679,243107,213016,
250709,243113,242881,
250761,243136,225564,
250805,243138,210559,
250825,243162,231842,
250878,243177,237905,
250910,243200,210318,
250963,243210,221073,
250971,243232,245207,
251032,243243,215686,
251073,243271,215820,
251119,243280,243266,
251156,243302,223303,
251182,243317,209918,
251221,243331,231908,
251270,243360,235813,
251323,243393,207876,
251365,243388,219885,
251407,243416,243807,
251461,243440,212785,
251520,243474,213997,
251555,243482,243272,
251604,243513,222562,
251654,243533,210782,
251698,243551,233984,
251757,243567,235933,
251786,243594,210801,
251808,243609,223300,
251818,243616,245056,
251845,243629,213364,
251890,243637,215178,
251910,243640,245065,
251940,243650,222111,
251950,243663,211299,
251982,243675,235526,
252034,243695,234945,
252039,243701,210285,
252084,243718,223582,
252110,243740,243677,
252169,243753,212960,
252186,243784,216019,
252222,243781,245933,
252259,243814,221484,
252275,243832,211679,
252324,243826,237055,
252316,243836,235132,
252376,243842,210941,
252360,243861,224402,
252383,243850,242754,
252423,243850,212572,
252422,243866,216546,
252428,243871,245589,
252455,243874,220567,
252466,243863,212225,
252446,243879,238243,
252453,243863,234100,
252452,243868,211469,
252375,243836,226195,
252334,243797,243505,
252238,243729,213114,
252166,243693,217862,
252012,243614,247066,
251880,243546,220527,
251682,243454,213045,
251494,243351,239310,
251292,243235,233611,
251039,243113,211568,
250806,242995,227397,
250567,242865,243355,
250287,242753,212660,
250042,242626,218106,
249797,242504,247500,
249528,242380,218691,
249289,242254,212171,
249060,242152,239287,
248827,242032,230660,
248584,241912,209839,
248348,241811,227315,
248125,241698,241745,
247939,241604,210990,
247756,241513,217454,
247550,241416,245891,
247380,241335,216938,
247240,241261,211653,
247129,241200,240105,
246993,241149,229009,
246906,241119,209704,
246835,241079,228004,
246793,241050,240638,
246734,241027,210557,
246692,241031,218078,
246663,241035,246271,
246688,241021,216334,
246682,241025,212118,
246682,241033,240912,
246691,241049,227510,
246748,241044,209367,
246745,241078,228693,
246813,241090,239472,
246840,241098,210122,
246893,241149,218617,
246968,241181,245712,
247034,241223,215471,
247142,241269,212660,
247234,241324,242499,
247303,241359,226799,
247378,241409,209978,
247483,241450,230268,
247551,241505,239214,
247674,241539,209845,
247783,241595,219338,
247878,241657,244951,
247963,241709,214230,
248057,241747,212772,
248161,241795,242449,
248239,241837,225328,
248323,241888,209856,
248412,241939,231569,
248502,241963,238777,
248565,241990,209928,
248617,242019,220067,
248666,242059,245345,
248696,242076,213819,
248724,242076,212919,
248788,242088,242482,
248812,242126,224237,
248829,242130,209992,
248865,242143,232495,
248874,242139,237544,
248862,242127,209537,
248887,242144,220868,
248855,242145,244926,
248837,242122,213400,
248815,242103,213311,
248787,242084,243138,
248740,242070,222669,
248706,242058,209786,
248674,242038,232879,
248625,242012,235966,
248589,242001,209508,
248569,241992,221913,
248511,241974,244463,
248471,241954,212221,
248433,241935,213813,
248435,241910,243791,
248374,241918,222022,
248373,241901,210102,
248348,241874,234195,
248334,241879,235344,
248311,241871,209652,
248293,241863,222693,
248279,241847,243547,
248298,241865,211903,
248296,241841,214489,
248311,241858,244428,
248325,241876,220754,
248312,241880,210665,
248287,241855,235619,
248301,241858,234270,
248284,241859,209885,
248295,241844,223916,
248269,241839,243538,
248250,241841,212124,
248234,241833,215892,
248218,241814,247237,
248205,241813,220983,
248178,241806,210788,
248167,241789,236879,
248122,241774,233665,
248141,241776,209696,
248095,241761,224128,
248063,241732,242083,
248062,241743,210966,
248033,241718,215713,
248011,241702,245398,
247981,241685,218908,
247960,241676,211207,
247927,241644,238604,
247895,241627,232819,
247883,241629,209216,
247821,241597,225160,
247815,241586,241966,
247782,241588,210542,
247778,241566,216092,
247760,241561,245592,
247750,241559,217858,
247775,241555,211522,
247781,241573,239462,
247790,241580,232220,
247818,241578,210945,
247857,241596,228448,
247890,241619,242881,
247921,241635,210017,
247983,241659,215671,
248004,241676,244920,
248066,241701,214599,
248120,241733,208890,
248164,241752,237109,
248211,241765,226853,
248274,241791,208453,
248343,241820,227481,
248396,241844,241219,
248481,241898,210202,
248581,241940,217714,
248660,241995,246502,
248752,242040,216298,
248864,242075,211610,
248945,242141,240819,
249035,242179,228560,
249110,242230,209489,
249202,242268,228351,
249278,242299,239846,
249358,242312,210217,
249433,242373,218774,
249496,242408,246269,
249594,242445,215850,
249648,242483,212298,
249737,242514,241607,
249799,242551,227028,
249863,242594,209959,
249951,242625,230486,
250018,242676,239903,
250100,242691,210114,
250135,242730,219610,
250183,242741,246494,
250242,242768,215239,
250231,242768,213012,
250267,242766,242725,
250271,242770,226498,
250260,242770,210567,
250252,242748,231758,
250237,242730,239680,
250215,242751,210559,
250202,242731,220711,
250172,242716,246716,
250126,242682,215557,
250098,242659,214392,
250046,242646,244814,
250027,242612,226422,
249953,242577,211084,
249867,242541,233412,
249778,242501,239381,
249654,242441,211346,
249512,242374,221930,
249377,242297,246009,
249203,242199,215154,
248987,242113,214583,
248770,242012,244558,
248604,241927,224637,
248379,241829,211481,
248166,241716,234573,
247947,241626,239054,
247707,241506,210707,
247509,241400,222069,
247308,241319,245244,
247100,241213,212979,
246934,241143,213985,
246747,241052,243325,
246579,240973,221870,
246466,240913,210025,
246303,240848,234369,
246202,240799,236358,
246127,240748,209543,
246027,240712,222746,
245960,240672,245195,
245890,240639,212599,
245830,240601,214841,
245771,240582,245522,
245756,240569,221556,
245909,240548,210457,
245860,240530,235062,
245843,240518,234431,
245818,240513,209538,
245826,240506,223487,
245799,240488,244591,
245822,240495,212177,
245808,240499,215301,
245830,240510,246059,
245831,240533,220647,
245861,240543,210828,
245896,240549,237036,
245908,240559,234232,
245941,240556,209634,
245962,240591,224272,
245985,240587,242918,
246001,240613,211848,
246014,240603,215620,
246022,240607,246803,
246033,240618,220175,
246057,240616,211169,
246089,240633,237829,
246101,240645,233130,
246141,240662,209695,
246187,240671,225466,
246209,240710,243059,
246281,240730,211359,
246319,240758,216231,
246405,240795,246332,
246480,240827,218447,
246549,240867,211051,
246605,240895,238701,
246681,240921,231596,
246730,240961,209238,
246791,240996,226261,
246807,241012,242133,
246827,241018,210791,
246868,241047,216814,
246872,241051,246643,
246892,241066,217646,
246920,241056,211245,
246918,241076,239552,
246922,241065,230362,
246936,241070,209560,
246932,241076,227096,
246918,241095,241326,
246942,241094,210315,
246936,241101,217189,
246939,241083,245748,
246931,241082,216442,
246907,241074,211696,
246935,241097,239714,
246948,241091,228264,
246929,241098,209434,
246947,241117,228866,
246961,241122,241663,
246982,241106,210144,
247006,241150,217704,
247019,241146,245879,
247036,241141,215495,
247061,241143,211754,
247054,241160,240596,
247082,241168,227300,
247112,241159,209601,
247130,241183,229658,
247143,241204,240027,
247184,241219,209661,
247210,241247,218674,
247267,241268,246937,
247300,241290,215703,
247354,241308,212452,
247409,241336,242153,
247460,241341,226405,
247492,241365,209760,
247541,241387,230391,
247593,241427,239234,
247621,241434,210100,
247669,241428,219805,
247706,241450,246287,
247697,241460,214696,
247757,241473,212652,
247801,241471,242890,
247829,241523,225934,
247880,241522,209808,
247925,241568,231761,
248002,241588,238779,
248072,241644,209539,
248147,241650,219646,
248230,241703,244450,
248307,241741,213396,
248376,241763,212630,
248426,241793,243243,
248498,241830,224328,
248533,241837,209745,
248575,241853,232789,
248605,241863,238000,
248647,241883,209183,
248680,241900,221324,
248710,241895,246401,
248743,241906,214778,
248797,241929,215255,
248804,241952,244574,
248873,241964,223620,
248926,241991,209927,
248981,242026,232988,
249027,242040,235552,
249068,242064,207011,
249122,242093,219712,
249184,242116,243709,
249212,242135,210597,
249269,242144,212555,
249326,242182,243808,
249361,242211,221509,
249383,242203,210128,
249415,242224,235349,
249446,242240,236211,
249475,242240,209415,
249498,242251,222581,
249540,242282,244587,
249581,242303,212161,
249621,242328,214626,
249655,242348,246062,
249743,242387,221357,
249797,242422,210630,
249896,242448,236502,
249972,242499,235169,
250048,242557,209590,
250124,242586,223984,
250215,242624,244863,
250280,242659,211800,
250354,242713,215034,
250426,242733,246226,
250487,242762,219977,
250538,242771,210577,
250570,242798,237300,
250629,242812,234156,
250657,242816,209629,
250691,242842,224477,
250690,242839,242890,
250732,242844,211634,
250736,242861,216216,
250765,242844,247525,
250785,242865,220133,
250793,242851,211841,
250801,242868,238628,
250842,242862,232878,
250824,242864,210007,
250790,242840,225887,
250772,242822,242767,
250706,242789,211896,
250619,242741,217517,
250523,242667,247259,
250375,242606,219265,
250229,242518,212526,
250033,242412,240583,
249832,242307,233098,
249625,242231,211014,
249414,242104,228148,
249174,241997,243676,
248940,241877,211728,
248667,241734,217734,
248394,241615,247872,
248157,241512,218291,
247914,241389,211797,
247656,241270,239646,
247450,241152,229665,
247237,241061,208944,
247013,240955,228014,
246834,240834,241946,
246637,240758,209986,
246475,240701,217570,
246328,240624,246713,
246187,240566,216144,
246087,240507,210980,
245964,240452,239925,
245885,240400,227678,
245822,240371,208664,
245748,240346,228253,
245685,240326,240433,
245673,240312,209406,
245649,240309,217977,
245633,240294,246525,
245640,240297,214723,
245618,240304,211128,
245647,240315,241310,
245676,240330,226620,
245726,240328,208493,
245739,240353,229208,
245765,240361,239700,
245798,240367,208914,
245824,240397,218287,
245824,240404,245975,
245859,240405,214327,
245869,240402,211608,
245885,240427,241760,
245882,240415,225444,
245904,240450,208689,
245916,240449,230019,
245947,240453,238745,
245975,240473,209092,
246035,240495,219451,
246079,240533,246304,
246162,240547,213943,
246222,240595,211982,
246291,240612,242819,
246350,240628,224439,
246437,240680,208884,
246508,240717,231509,
246558,240740,237937,
246629,240761,208558,
246704,240803,219901,
246754,240820,244836,
246832,240856,212563,
246896,240877,212465,
246952,240926,243276,
247022,240950,223292,
247063,240979,209028,
247144,240989,233221,
247185,241018,237875,
247247,241048,208755,
247268,241079,220628,
247320,241087,244738,
247336,241094,212436,
247375,241121,212704,
247415,241154,242498,
247465,241170,221431,
247476,241185,209278,
247495,241202,233903,
247542,241217,236216,
247564,241218,208626,
247572,241239,222004,
247603,241242,245764,
247636,241266,211990,
247641,241293,213422,
247689,241301,243936,
247742,241324,220546,
247773,241340,209458,
247807,241358,234400,
247860,241397,234668,
247914,241391,208598,
247943,241417,222295,
247991,241443,244024,
248015,241459,211025,
248067,241479,214085,
248085,241490,246176,
248113,241508,219902,
248148,241516,209429,
248155,241519,235875,
248156,241512,233496,
248189,241542,208317,
248198,241543,223111,
248220,241553,242614,
248232,241552,210757,
248258,241546,214834,
248287,241576,246288,
248322,241586,219324,
248342,241601,210054,
248382,241604,237615,
248401,241618,233244,
248422,241620,208694,
248434,241628,224396,
248460,241646,242858,
248484,241663,210479,
248503,241647,215410,
248534,241673,246472,
248551,241675,217998,
248580,241677,209994,
248594,241690,237847,
248601,241677,231066,
248624,241694,208092,
248683,241698,225018,
248676,241728,242198,
248734,241735,209556,
248747,241751,215814,
248775,241764,247003,
248795,241765,216900,
248849,241793,209937,
248864,241801,239052,
248904,241818,230456,
248947,241829,208653,
248981,241847,226464,
248991,241857,241845,
249046,241861,210772,
249037,241893,218211,
249090,241891,247640,
249114,241905,216471,
249140,241904,209884,
249188,241947,237658,
249209,241934,226165,
249229,241955,206050,
249244,241957,226033,
249276,241970,240344,
249319,241993,208192,
249343,242020,216303,
249374,242017,245383,
249403,242030,214914,
249433,242049,210827,
249449,242078,240415,
249482,242085,226946,
249523,242112,208491,
249582,242114,228772,
249595,242129,239930,
249630,242157,209070,
249661,242170,218633,
249712,242190,247901,
249748,242211,215340,
249779,242215,211347,
249802,242239,241860,
249855,242275,226573,
249901,242272,208854,
249915,242297,229486,
249955,242312,238689,
250012,242339,208956,
250055,242364,219028,
250106,242384,246268,
250168,242421,214457,
250212,242445,212159,
250280,242477,243305,
250332,242496,225968,
250371,242528,209488,
250447,242545,231880,
250481,242565,239417,
250472,242561,209337,
250514,242559,219680,
250517,242559,244956,
250492,242557,213327,
250507,242541,212821,
250479,242520,243451,
250458,242507,225003,
250394,242485,210131,
250347,242436,233736,
250275,242402,239534,
250166,242344,209855,
250053,242287,221815,
249941,242229,247019,
249785,242157,213923,
249616,242074,214097,
249461,241969,243872,
249259,241906,223459,
249102,241803,210598,
248927,241722,234634,
248726,241639,237784,
248524,241529,209451,
248353,241440,222265,
248161,241335,245409,
247984,241271,212463,
247793,241184,213805,
247638,241114,244406,
247492,241045,221495,
247378,240982,209177,
247243,240933,234712,
247151,240878,235909,
247062,240862,208516,
246965,240809,222188,
246912,240786,244227,
246859,240780,211375,
246816,240754,213608,
246782,240754,244659,
246723,240735,219982,
246697,240728,209397,
246687,240707,235246,
246648,240702,234177,
246627,240681,208228,
246591,240661,223072,
246569,240668,244098,
246539,240637,210521,
246520,240621,213761,
246486,240612,245741,
246454,240602,219763,
246457,240603,209378,
246446,240603,236215,
246404,240565,232975,
246426,240592,208175,
246456,240572,223548,
246438,240567,242357,
246445,240582,209971,
246455,240582,214823,
246460,240580,246636,
246438,240597,218663,
246485,240596,209827,
246498,240602,237955,
246500,240608,232533,
246515,240604,208191,
246533,240623,224577,
246548,240636,242150,
246570,240635,209950,
246651,240662,215651,
246669,240666,245972,
246694,240692,216978,
246736,240706,210425,
246791,240726,238922,
246802,240721,231051,
246831,240741,207831,
246862,240745,225785,
246842,240736,242218,
246874,240732,209716,
246855,240729,216232,
246851,240723,245768,
246817,240698,215998,
246781,240712,210235,
246758,240688,239078,
246713,240659,229179,
246666,240645,208311,
246638,240625,227330,
246568,240595,241821,
246542,240583,209410,
246485,240594,216974,
246455,240555,247401,
246416,240547,215689,
246371,240514,210254,
246330,240515,239761,
246308,240516,227190,
246272,240476,207994,
246251,240468,228101,
246230,240455,240591,
246222,240448,208891,
246191,240458,217494,
246178,240463,246662,
246185,240465,214627,
246202,240478,210961,
246213,240488,241524,
246220,240505,226817,
246247,240510,208329,
246279,240522,229202,
246307,240554,239884,
246338,240564,208593,
246399,240576,217966,
246413,240603,246302,
246463,240619,213835,
246480,240631,211251,
246493,240648,241674,
246486,240647,225260,
246492,240647,207987,
246525,240666,230141,
246496,240644,239015,
246510,240663,208495,
246533,240665,219096,
246532,240673,246431,
246569,240697,213469,
246592,240708,211545,
246627,240738,243182,
246685,240754,224667,
246734,240768,207975,
246808,240802,231275,
246857,240851,237843,
246923,240869,207908,
246993,240917,219374,
247070,240928,245902,
247126,240955,212093,
247176,240993,211704,
247229,241025,243205,
247275,241030,223023,
247329,241063,208013,
247389,241097,232681,
247434,241113,237535,
247479,241122,207528,
247483,241126,220448,
247519,241164,245234,
247524,241149,211551,
247547,241158,212962,
247582,241171,244510,
247590,241172,222821,
247615,241189,210366,
247601,241182,235228,
247598,241171,236233,
247614,241179,206474,
247614,241184,219306,
247634,241188,243598,
247650,241194,208934,
247656,241190,211072,
247671,241198,243713,
247689,241204,219358,
247729,241235,207998,
247789,241252,234728,
247819,241273,234532,
247881,241308,207727,
247954,241362,222522,
248014,241374,244289,
248105,241430,210846,
248158,241467,214268,
248240,241494,246054,
248285,241525,219846,
248356,241574,209322,
248409,241603,236172,
248489,241635,233443,
248546,241656,207807,
248605,241704,223361,
248653,241740,243257,
248718,241768,210028,
248812,241815,214639,
248888,241839,247131,
248969,241903,219308,
249059,241942,209908,
249145,241987,238044,
249227,242033,233382,
249310,242074,208232,
249396,242112,224917,
249484,242147,243591,
249551,242201,210256,
249616,242225,215402,
249693,242248,247074,
249736,242289,218090,
249830,242305,210222,
249836,242328,238994,
249903,242338,232041,
249913,242343,208852,
249931,242363,226273,
249937,242358,242995,
249924,242351,210560,
249895,242336,217095,
249828,242299,248753,
249752,242261,218200,
249646,242210,211613,
249540,242164,241196,
249410,242089,231539,
249223,242001,209371,
249067,241922,228245,
248860,241824,242964,
248646,241714,209952,
248417,241611,217292,
248179,241482,247042,
247960,241381,216598,
247726,241253,211323,
247494,241160,241080,
247285,241044,228786,
247076,240938,207868,
246888,240867,228390,
246686,240777,241868,
246530,240693,208942,
246398,240643,216963,
246285,240596,246231,
246154,240560,214608,
246055,240513,210264,
245983,240464,240597,
245904,240435,226696,
245862,240419,207744,
245808,240396,229055,
245782,240378,240339,
245760,240368,207947,
245749,240379,217551,
245735,240369,246569,
245723,240370,213765,
245723,240372,210461,
245709,240376,241651,
245749,240394,225734,
245747,240388,207994,
245757,240393,229581,
245783,240412,238495,
245834,240435,207945,
245867,240449,218729,
245910,240475,247365,
245972,240507,213846,
246031,240548,211425,
246102,240577,243188,
246199,240609,224974,
246267,240657,208188,
246366,240702,231165,
246439,240740,238354,
246570,240783,208030,
246629,240844,219560,
246745,240891,245752,
246852,240935,212523,
246964,240986,212019,
247069,241049,244234,
247167,241095,223998,
247259,241135,208939,
247367,241196,233359,
247441,241230,238550,
247512,241262,208245,
247571,241300,220660,
247648,241335,246297,
247706,241361,212353,
247767,241382,212614,
247831,241414,243926,
247881,241442,221958,
247926,241445,208948,
247946,241466,234255,
247997,241502,237211,
248064,241517,208699,
248089,241540,222175,
248130,241556,245283,
248164,241553,211457,
248184,241572,213531,
248175,241588,245209,
248181,241577,221046,
248196,241566,209477,
248192,241580,235854,
248165,241564,236088,
248153,241562,208606,
248158,241557,222750,
248142,241539,245328,
248129,241528,211426,
248112,241538,214171,
248098,241529,245640,
248142,241535,220478,
248112,241529,210198,
248120,241535,236577,
248112,241541,234887,
248130,241528,208582,
248135,241543,223950,
248118,241526,244686,
248129,241516,210798,
248137,241517,214819,
248111,241505,246432,
248128,241514,219646,
248126,241524,209926,
248146,241523,237229,
248165,241520,233393,
248151,241526,208401,
248200,241545,225003,
248238,241576,244041,
248271,241574,210708,
248315,241603,216472,
248379,241633,248263,
248442,241674,218967,
248502,241709,210723,
248588,241737,239187,
248663,241771,232493,
248725,241803,209224,
248784,241836,226095,
248836,241851,242946,
248914,241894,210678,
248944,241909,216883,
248997,241934,248524,
249033,241967,218350,
249097,241982,210954,
249167,242001,240563,
249201,242025,231732,
249256,242042,208783,
249317,242086,227033,
249378,242092,241900,
249427,242113,210142,
249488,242160,217278,
249545,242169,247214,
249588,242197,216824,
249627,242204,211208,
249677,242224,241365,
249716,242257,229978,
249768,242262,209254,
249811,242293,229196,
249844,242302,242828,
249929,242329,210511,
249962,242337,218696,
250016,242358,247880,
250070,242383,217732,
250146,242419,213247,
250177,242443,241897,
250228,242459,227241,
250292,242469,207199,
250339,242517,227882,
250386,242545,239498,
250472,242579,207649,
250487,242588,216776,
250555,242608,246533,
250604,242638,215109,
250673,242665,211730,
250703,242687,242458,
250760,242706,227297,
250850,242758,209479,
250916,242787,230779,
250980,242818,240526,
251048,242852,209706,
251135,242897,219789,
251220,242935,247286,
251292,242985,215026,
251388,243016,212819,
251440,243042,243416,
251538,243090,226278,
251633,243122,209654,
251702,243153,232576,
251780,243200,240616,
251857,243262,209907,
251890,243275,221094,
251960,243304,247752,
252035,243339,214524,
252114,243382,213920,
252190,243397,244435,
252273,243442,225097,
252319,243484,210015,
252395,243489,233371,
252411,243509,238927,
252484,243547,209737,
252510,243549,222190,
252559,243551,248306,
252569,243565,214532,
252592,243562,214133,
252612,243573,245278,
252630,243567,224407,
252623,243556,210982,
252582,243539,235229,
252563,243506,238275,
252495,243482,210064,
252420,243428,223023,
252308,243378,247090,
252215,243313,214092,
252079,243244,215672,
251924,243177,247443,
251733,243075,224609,
251566,242973,211491,
251372,242889,236836,
251162,242771,237986,
250943,242660,210221,
250743,242551,223679,
250486,242451,244723,
250264,242323,212128,
250036,242200,214912,
249802,242098,246278,
249551,241969,221284,
249309,241847,209780,
249070,241729,236206,
248850,241639,235133,
248638,241534,208181,
248451,241440,223034,
248254,241352,244135,
248095,241267,210711,
247925,241184,213437,
247796,241129,244215,
247632,241070,218659,
247542,241004,209271,
247435,240968,236813,
247316,240906,233291,
247230,240882,207875,
247163,240838,223542,
247085,240794,243182,
247002,240769,210042,
246935,240745,214715,
246903,240729,246486,
246878,240712,217922,
246866,240697,208878,
246857,240707,237418,
246856,240721,231566,
246884,240731,207435,
246912,240734,224796,
246908,240738,243156,
246921,240746,209499,
246926,240749,215131,
246943,240741,246779,
246928,240728,217015,
246912,240733,209253,
246901,240727,238359,
246916,240726,230709,
246900,240707,207321,
246903,240714,225477,
246913,240697,242179,
246918,240702,209055,
246927,240699,215285,
246933,240723,246280,
246967,240727,215798,
247008,240741,209511,
247032,240760,239291,
247093,240769,229187,
247128,240819,207460,
247217,240845,226677,
247312,240892,241756,
247342,240916,208954,
247435,240950,215983,
247479,240974,246135,
247531,241013,214986,
247567,241021,209899,
247617,241045,240068,
247645,241065,227614,
247680,241084,207736,
247693,241088,227293,
247732,241107,239850,
247745,241120,207936,
247795,241142,217104,
247801,241162,246982,
247774,241148,214797,
247777,241152,210339,
247750,241137,241361,
247748,241124,226491,
247707,241095,207826,
247689,241092,229120,
247652,241084,239370,
247649,241082,208049,
247616,241056,217807,
247601,241039,246862,
247564,241040,213986,
247571,241040,211028,
247574,241038,242711,
247583,241039,225988,
247609,241066,207858,
247626,241065,230360,
247639,241072,239089,
247659,241092,207897,
247701,241108,218025,
247748,241139,244981,
247782,241151,213108,
247809,241173,211392,
247856,241204,243436,
247908,241232,224633,
247958,241260,207957,
248051,241296,231624,
248110,241332,238562,
248159,241362,207939,
248218,241385,220118,
248294,241426,246397,
248364,241468,212143,
248442,241482,212007,
248496,241525,243230,
248578,241567,222902,
248638,241575,209150,
248698,241611,233806,
248751,241647,238154,
248801,241663,208658,
248880,241709,220943,
248932,241726,245590,
249000,241753,211457,
249041,241772,212325,
249093,241804,244060,
249137,241841,221343,
249199,241860,208526,
249268,241880,234188,
249313,241919,236379,
249375,241941,208284,
249449,241969,221512,
249513,241995,244035,
249570,242036,211140,
249641,242054,213013,
249719,242088,244398,
249777,242128,220253,
249821,242144,208829,
249879,242157,235274,
249921,242177,236021,
249957,242207,208847,
249998,242205,223419,
250020,242217,245345,
250050,242223,212579,
250066,242207,215298,
250077,242229,245879,
250087,242228,219237,
250085,242220,207707,
250111,242235,234445,
250092,242210,231943,
250087,242196,205945,
250066,242207,222375,
250069,242199,244308,
250097,242175,210282,
250091,242182,214500,
250086,242181,246749,
250090,242169,219476,
250095,242169,210467,
250123,242183,237817,
250113,242185,233297,
250137,242194,208951,
250162,242198,225472,
250195,242220,243913,
250211,242211,211191,
250256,242217,216580,
250252,242246,248870,
250290,242246,219423,
250299,242249,210915,
250318,242259,239177,
250331,242280,232428,
250348,242276,209236,
250377,242288,226523,
250393,242291,243187,
250405,242296,210677,
250428,242317,217042,
250399,242303,247757,
250445,242304,217897,
250434,242307,211410,
250466,242297,241172,
250467,242285,231460,
250455,242293,209306,
250468,242295,227793,
250471,242284,242326,
250477,242299,210446,
250467,242285,217836,
250474,242266,247196,
250475,242278,217212,
250501,242268,212223,
250445,242248,242015,
250411,242237,230420,
250382,242194,209998,
250313,242166,229888,
250195,242105,243297,
250116,242051,210976,
249974,241986,219184,
249841,241916,248610,
249651,241813,217139,
249485,241732,212725,
249297,241633,242301,
249112,241519,228647,
248892,241403,210424,
248701,241309,231303,
248465,241209,242110,
248250,241097,210638,
248021,240974,219525,
247826,240873,247710,
247594,240776,215252,
247383,240664,212104,
247182,240573,242518,
247004,240472,226132,
246821,240392,208926,
246642,240313,231139,
246487,240232,240103,
246340,240164,208817,
246197,240090,219658,
246097,240045,247155,
246008,239996,213995,
245936,239963,212372,
245856,239932,243896,
245817,239911,225119,
245776,239898,208857,
245742,239879,232249,
245706,239858,239071,
245717,239879,208769,
245720,239875,220199,
245710,239872,247158,
245705,239877,213526,
245740,239887,212918,
245752,239883,244483,
245768,239925,223798,
245796,239917,209037,
245847,239945,233582,
245865,239971,238344,
245927,239963,208545,
245943,239982,220717,
245966,239999,246073,
245985,240020,212340,
246014,240031,212992,
246054,240028,245034,
246065,240054,222346,
246103,240054,208914,
246126,240055,234267,
246168,240068,236646,
246212,240105,208555,
246250,240144,222357,
246317,240141,245555,
246381,240196,211649,
246438,240216,213489,
246546,240261,245365,
246612,240329,221035,
246718,240371,209131,
246823,240421,235315,
246894,240456,235199,
246969,240513,208111,
247049,240539,222747,
247116,240596,244414,
247171,240610,211024,
247226,240622,214085,
247260,240656,246227,
247286,240681,220275,
247308,240668,209279,
247339,240673,236537,
247297,240672,234325,
247288,240665,208436,
247277,240658,223493,
247254,240644,243584,
247225,240632,210329,
247190,240616,214499,
247188,240608,246450,
247134,240597,218940,
247118,240591,209478,
247091,240563,237783,
247059,240549,233477,
247041,240536,207974,
247017,240524,224864,
247008,240505,243000,
246971,240499,209683,
246949,240484,215243,
246931,240478,246456,
246912,240461,217288,
246902,240456,209806,
246879,240449,238532,
246902,240438,231282,
246895,240426,207789,
246882,240441,226205,
246882,240439,243452,
246888,240415,209448,
246871,240425,215857,
246890,240434,246936,
246908,240445,216515,
246926,240449,209698,
246938,240450,238894,
246957,240459,229452,
246967,240476,207907,
247027,240503,227499,
247057,240516,243016,
247105,240528,209364,
247142,240560,216605,
247184,240579,247224,
247229,240616,216044,
247295,240628,210471,
247333,240644,240564,
247396,240687,228601,
247432,240710,208362,
247503,240731,227933,
247550,240750,240681,
247615,240785,208838,
247662,240803,217421,
247700,240839,246964,
247776,240852,214790,
247800,240864,210640,
247855,240916,241629,
247886,240913,227423,
247905,240920,207776,
247947,240928,228694,
247962,240953,240326,
247990,240945,208222,
248034,240971,217494,
248064,240982,245834,
248100,240981,213885,
248155,241011,211064,
248180,241031,242150,
248219,241060,226267,
248272,241078,208771,
248329,241079,230787,
248352,241118,240493,
248413,241147,209931,
248469,241169,220521,
248504,241188,247387,
248560,241217,214983,
248613,241230,212359,
248667,241280,242582,
248736,241298,223480,
248787,241311,206887,
248841,241344,230445,
248899,241356,238479,
248935,241381,207567,
248972,241410,219498,
249028,241410,246734,
249050,241446,213688,
249100,241446,212862,
249141,241478,244287,
249182,241486,224469,
249209,241498,209596,
249284,241528,233935,
249321,241551,239260,
249387,241580,209705,
249440,241624,222288,
249507,241645,247188,
249575,241677,213472,
249629,241717,213597,
249693,241751,245026,
249758,241768,223192,
249817,241799,210196,
249869,241821,235665,
249896,241836,238111,
249959,241867,209167,
249995,241891,222732,
250038,241894,246152,
250094,241922,212453,
250154,241934,214192,
250189,241959,245429,
250229,241986,221919,
250284,241995,210560,
250300,242019,236409,
250353,242035,236711,
250391,242050,209728,
250423,242049,223992,
250468,242063,245969,
250468,242087,212444,
250524,242083,215357,
250529,242089,246759,
250528,242096,221827,
250501,242076,211306,
250482,242060,237548,
250453,242021,235487,
250393,241976,209864,
250271,241918,225257,
250172,241848,245735,
250030,241786,212467,
249893,241696,216741,
249695,241616,248883,
249520,241525,221560,
249299,241390,211845,
249097,241291,239533,
248860,241169,235142,
248631,241062,210287,
248414,240948,226491,
248183,240844,244594,
247965,240742,211653,
247758,240635,216845,
247580,240549,248730,
247391,240461,219619,
247206,240368,210792,
247037,240290,239925,
246866,240218,233346,
246746,240135,208758,
246606,240079,226433,
246475,240005,243490,
246382,239967,210246,
246287,239917,216365,
246195,239884,247120,
246131,239852,217199,
246074,239819,210620,
246007,239785,240441,
245966,239783,231407,
245909,239756,208677,
245880,239737,227785,
245875,239730,243303,
245843,239724,209736,
