0,1,2,3,4,5,6,7,8,9
297382.0,256173.0,,,,,,,,
297387.0,256215.0,,,,,,,,
297392.0,256256.0,,,,,,,,
297397.0,256313.0,,,,,,,,
297402.0,256352.0,,,,,,,,
297407.0,256405.0,,,,,,,,
297412.0,256455.0,,,,,,,,
297417.0,256485.0,,,,,,,,
297422.0,256575.0,,,,,,,,
297427.0,256635.0,,,,,,,,
297432.0,256660.0,,,,,,,,
297438.0,256711.0,,,,,,,,
297442.0,256749.0,,,,,,,,
297447.0,256812.0,,,,,,,,
297453.0,256872.0,,,,,,,,
297457.0,256879.0,,,,,,,,
297462.0,256930.0,,,,,,,,
297468.0,256987.0,,,,,,,,
297473.0,257024.0,,,,,,,,
297477.0,257073.0,,,,,,,,
297483.0,257132.0,,,,,,,,
297488.0,257154.0,,,,,,,,
297493.0,257175.0,,,,,,,,
297498.0,257238.0,,,,,,,,
297503.0,257297.0,,,,,,,,
297508.0,257369.0,,,,,,,,
297513.0,257388.0,,,,,,,,
297518.0,257441.0,,,,,,,,
297523.0,257514.0,,,,,,,,
297528.0,257544.0,,,,,,,,
297533.0,257604.0,,,,,,,,
297538.0,257661.0,,,,,,,,
297543.0,257709.0,,,,,,,,
297548.0,257768.0,,,,,,,,
297553.0,257803.0,,,,,,,,
297558.0,257832.0,,,,,,,,
297563.0,257910.0,,,,,,,,
297568.0,257943.0,,,,,,,,
297573.0,258001.0,,,,,,,,
297578.0,258040.0,,,,,,,,
297583.0,258101.0,,,,,,,,
297588.0,258117.0,,,,,,,,
297593.0,258162.0,,,,,,,,
297598.0,258201.0,,,,,,,,
297603.0,258273.0,,,,,,,,
297608.0,258299.0,,,,,,,,
297613.0,258360.0,,,,,,,,
297618.0,258405.0,,,,,,,,
297623.0,258462.0,,,,,,,,
297628.0,258503.0,,,,,,,,
297633.0,258540.0,,,,,,,,
297638.0,258586.0,,,,,,,,
297643.0,258653.0,,,,,,,,
297648.0,258706.0,,,,,,,,
297653.0,258776.0,,,,,,,,
297658.0,258832.0,,,,,,,,
297663.0,258879.0,,,,,,,,
297668.0,258924.0,,,,,,,,
297673.0,258980.0,,,,,,,,
297678.0,259035.0,,,,,,,,
297683.0,259051.0,,,,,,,,
297688.0,259027.0,,,,,,,,
297693.0,259029.0,,,,,,,,
297698.0,258929.0,,,,,,,,
297703.0,258814.0,,,,,,,,
297708.0,258652.0,,,,,,,,
297713.0,258441.0,,,,,,,,
297718.0,258172.0,,,,,,,,
297723.0,257871.0,,,,,,,,
297728.0,257507.0,,,,,,,,
297733.0,257159.0,,,,,,,,
297738.0,256792.0,,,,,,,,
297743.0,256362.0,,,,,,,,
297748.0,255982.0,,,,,,,,
297753.0,255546.0,,,,,,,,
297758.0,255168.0,,,,,,,,
297763.0,254783.0,,,,,,,,
297768.0,254403.0,,,,,,,,
297774.0,254069.0,,,,,,,,
297778.0,253770.0,,,,,,,,
297783.0,253465.0,,,,,,,,
297789.0,253181.0,,,,,,,,
297794.0,252950.0,,,,,,,,
297798.0,252753.0,,,,,,,,
297804.0,252573.0,,,,,,,,
297809.0,252438.0,,,,,,,,
297814.0,252312.0,,,,,,,,
297818.0,252232.0,,,,,,,,
297824.0,252168.0,,,,,,,,
297829.0,252102.0,,,,,,,,
297834.0,252078.0,,,,,,,,
297839.0,252053.0,,,,,,,,
297844.0,252058.0,,,,,,,,
297849.0,252071.0,,,,,,,,
297854.0,252080.0,,,,,,,,
297859.0,252111.0,,,,,,,,
297864.0,252162.0,,,,,,,,
297869.0,252222.0,,,,,,,,
297874.0,252249.0,,,,,,,,
297879.0,252319.0,,,,,,,,
297884.0,252394.0,,,,,,,,
297889.0,252473.0,,,,,,,,
297894.0,252529.0,,,,,,,,
297899.0,252589.0,,,,,,,,
297904.0,252658.0,,,,,,,,
297909.0,252750.0,,,,,,,,
297914.0,252814.0,,,,,,,,
297919.0,252910.0,,,,,,,,
297924.0,252974.0,,,,,,,,
297929.0,253051.0,,,,,,,,
297934.0,253167.0,,,,,,,,
297939.0,253252.0,,,,,,,,
297944.0,253357.0,,,,,,,,
297949.0,253460.0,,,,,,,,
297954.0,253559.0,,,,,,,,
297959.0,253684.0,,,,,,,,
297964.0,253827.0,,,,,,,,
297969.0,253942.0,,,,,,,,
297974.0,254041.0,,,,,,,,
297979.0,254180.0,,,,,,,,
297984.0,254294.0,,,,,,,,
297989.0,254369.0,,,,,,,,
297994.0,254493.0,,,,,,,,
297999.0,254578.0,,,,,,,,
298004.0,254649.0,,,,,,,,
298009.0,254719.0,,,,,,,,
298014.0,254762.0,,,,,,,,
298019.0,254809.0,,,,,,,,
298024.0,254865.0,,,,,,,,
298029.0,254905.0,,,,,,,,
298034.0,254873.0,,,,,,,,
298039.0,254883.0,,,,,,,,
298044.0,254893.0,,,,,,,,
298049.0,254865.0,,,,,,,,
298054.0,254851.0,,,,,,,,
298059.0,254798.0,,,,,,,,
298064.0,254762.0,,,,,,,,
298069.0,254735.0,,,,,,,,
298074.0,254694.0,,,,,,,,
298079.0,254640.0,,,,,,,,
298084.0,254604.0,,,,,,,,
298089.0,254547.0,,,,,,,,
298094.0,254521.0,,,,,,,,
298099.0,254467.0,,,,,,,,
298104.0,254424.0,,,,,,,,
298110.0,254408.0,,,,,,,,
298115.0,254377.0,,,,,,,,
298119.0,254351.0,,,,,,,,
298124.0,254337.0,,,,,,,,
298129.0,254323.0,,,,,,,,
298135.0,254311.0,,,,,,,,
298140.0,254303.0,,,,,,,,
298144.0,254317.0,,,,,,,,
298150.0,254310.0,,,,,,,,
298155.0,254354.0,,,,,,,,
298160.0,254375.0,,,,,,,,
298165.0,254372.0,,,,,,,,
298170.0,254416.0,,,,,,,,
298175.0,254469.0,,,,,,,,
298180.0,254483.0,,,,,,,,
298185.0,254522.0,,,,,,,,
298190.0,254581.0,,,,,,,,
298195.0,254609.0,,,,,,,,
298200.0,254662.0,,,,,,,,
298205.0,254728.0,,,,,,,,
298210.0,254797.0,,,,,,,,
298215.0,254839.0,,,,,,,,
298220.0,254873.0,,,,,,,,
298225.0,254943.0,,,,,,,,
298230.0,254995.0,,,,,,,,
298235.0,255044.0,,,,,,,,
298240.0,255107.0,,,,,,,,
298245.0,255167.0,,,,,,,,
298250.0,255222.0,,,,,,,,
298255.0,255287.0,,,,,,,,
298260.0,255359.0,,,,,,,,
298265.0,255418.0,,,,,,,,
298270.0,255473.0,,,,,,,,
298275.0,255555.0,,,,,,,,
298280.0,255599.0,,,,,,,,
298285.0,255682.0,,,,,,,,
298290.0,255764.0,,,,,,,,
298295.0,255802.0,,,,,,,,
298300.0,255842.0,,,,,,,,
298305.0,255922.0,,,,,,,,
298310.0,255962.0,,,,,,,,
298315.0,256019.0,,,,,,,,
298320.0,256107.0,,,,,,,,
298325.0,256124.0,,,,,,,,
298330.0,256183.0,,,,,,,,
298335.0,256239.0,,,,,,,,
298340.0,256289.0,,,,,,,,
298345.0,256358.0,,,,,,,,
298350.0,256397.0,,,,,,,,
298355.0,256467.0,,,,,,,,
298360.0,256512.0,,,,,,,,
298365.0,256565.0,,,,,,,,
298370.0,256612.0,,,,,,,,
298375.0,256671.0,,,,,,,,
298380.0,256718.0,,,,,,,,
298385.0,256788.0,,,,,,,,
298390.0,256802.0,,,,,,,,
298395.0,256863.0,,,,,,,,
298400.0,256910.0,,,,,,,,
298405.0,256947.0,,,,,,,,
298410.0,256954.0,,,,,,,,
298415.0,257018.0,,,,,,,,
298420.0,257034.0,,,,,,,,
298425.0,257089.0,,,,,,,,
298430.0,257136.0,,,,,,,,
298435.0,257146.0,,,,,,,,
298440.0,257184.0,,,,,,,,
298445.0,257208.0,,,,,,,,
298450.0,257244.0,,,,,,,,
298455.0,257288.0,,,,,,,,
298460.0,257350.0,,,,,,,,
298466.0,257369.0,,,,,,,,
298471.0,257399.0,,,,,,,,
298476.0,257420.0,,,,,,,,
298480.0,257452.0,,,,,,,,
298486.0,257472.0,,,,,,,,
298491.0,257512.0,,,,,,,,
298496.0,257535.0,,,,,,,,
298501.0,257584.0,,,,,,,,
298506.0,257578.0,,,,,,,,
298511.0,257600.0,,,,,,,,
298516.0,257641.0,,,,,,,,
298521.0,257667.0,,,,,,,,
298526.0,257687.0,,,,,,,,
298531.0,257718.0,,,,,,,,
298536.0,257756.0,,,,,,,,
298541.0,257765.0,,,,,,,,
298546.0,257785.0,,,,,,,,
298551.0,257826.0,,,,,,,,
298556.0,257846.0,,,,,,,,
298561.0,257850.0,,,,,,,,
298566.0,257869.0,,,,,,,,
298571.0,257899.0,,,,,,,,
298576.0,257932.0,,,,,,,,
298581.0,257954.0,,,,,,,,
298586.0,257985.0,,,,,,,,
298591.0,257995.0,,,,,,,,
298596.0,258023.0,,,,,,,,
298601.0,258057.0,,,,,,,,
298606.0,258068.0,,,,,,,,
298611.0,258102.0,,,,,,,,
298616.0,258131.0,,,,,,,,
298621.0,258165.0,,,,,,,,
298626.0,258191.0,,,,,,,,
298631.0,258228.0,,,,,,,,
298636.0,258268.0,,,,,,,,
298641.0,258309.0,,,,,,,,
298646.0,258338.0,,,,,,,,
298651.0,258360.0,,,,,,,,
298656.0,258418.0,,,,,,,,
298661.0,258446.0,,,,,,,,
298666.0,258480.0,,,,,,,,
298671.0,258508.0,,,,,,,,
298676.0,258579.0,,,,,,,,
298681.0,258581.0,,,,,,,,
298686.0,258582.0,,,,,,,,
298691.0,258607.0,,,,,,,,
298696.0,258578.0,,,,,,,,
298701.0,258497.0,,,,,,,,
298706.0,258406.0,,,,,,,,
298711.0,258253.0,,,,,,,,
298716.0,258020.0,,,,,,,,
298721.0,257805.0,,,,,,,,
298726.0,257510.0,,,,,,,,
298731.0,257201.0,,,,,,,,
298736.0,256838.0,,,,,,,,
298741.0,256462.0,,,,,,,,
298746.0,256049.0,,,,,,,,
298751.0,255656.0,,,,,,,,
298756.0,255233.0,,,,,,,,
298761.0,254844.0,,,,,,,,
298766.0,254448.0,,,,,,,,
298771.0,254081.0,,,,,,,,
298776.0,253728.0,,,,,,,,
298781.0,253377.0,,,,,,,,
298787.0,253055.0,,,,,,,,
298791.0,252797.0,,,,,,,,
298796.0,252510.0,,,,,,,,
298801.0,252317.0,,,,,,,,
298806.0,252102.0,,,,,,,,
298812.0,251949.0,,,,,,,,
298817.0,251811.0,,,,,,,,
298821.0,251694.0,,,,,,,,
298826.0,251590.0,,,,,,,,
298832.0,251514.0,,,,,,,,
298837.0,251466.0,,,,,,,,
298842.0,251452.0,,,,,,,,
298847.0,251424.0,,,,,,,,
298852.0,251432.0,,,,,,,,
298857.0,251409.0,,,,,,,,
298862.0,251447.0,,,,,,,,
298867.0,251454.0,,,,,,,,
298872.0,251476.0,,,,,,,,
298877.0,251498.0,,,,,,,,
298882.0,251543.0,,,,,,,,
298887.0,251581.0,,,,,,,,
298892.0,251641.0,,,,,,,,
298897.0,251692.0,,,,,,,,
298902.0,251755.0,,,,,,,,
298907.0,251780.0,,,,,,,,
298912.0,251876.0,,,,,,,,
298917.0,251944.0,,,,,,,,
298922.0,251983.0,,,,,,,,
298927.0,252051.0,,,,,,,,
298932.0,252132.0,,,,,,,,
298937.0,252211.0,,,,,,,,
298942.0,252280.0,,,,,,,,
298947.0,252375.0,,,,,,,,
298952.0,252466.0,,,,,,,,
298957.0,252560.0,,,,,,,,
298962.0,252668.0,,,,,,,,
298967.0,252760.0,,,,,,,,
298972.0,252867.0,,,,,,,,
298977.0,252994.0,,,,,,,,
298982.0,253064.0,,,,,,,,
298987.0,253175.0,,,,,,,,
298992.0,253309.0,,,,,,,,
298997.0,253377.0,,,,,,,,
299002.0,253473.0,,,,,,,,
299007.0,253533.0,,,,,,,,
299012.0,253593.0,,,,,,,,
299017.0,253670.0,,,,,,,,
299022.0,253685.0,,,,,,,,
299027.0,253709.0,,,,,,,,
299032.0,253757.0,,,,,,,,
299037.0,253746.0,,,,,,,,
299042.0,253743.0,,,,,,,,
299047.0,253739.0,,,,,,,,
299052.0,253725.0,,,,,,,,
299057.0,253689.0,,,,,,,,
299062.0,253668.0,,,,,,,,
299067.0,253604.0,,,,,,,,
299072.0,253558.0,,,,,,,,
299077.0,253522.0,,,,,,,,
299082.0,253478.0,,,,,,,,
299087.0,253439.0,,,,,,,,
299092.0,253392.0,,,,,,,,
299097.0,253345.0,,,,,,,,
299102.0,253285.0,,,,,,,,
299107.0,253258.0,,,,,,,,
299112.0,253241.0,,,,,,,,
299117.0,253190.0,,,,,,,,
299122.0,253180.0,,,,,,,,
299127.0,253168.0,,,,,,,,
299133.0,253144.0,,,,,,,,
299137.0,253143.0,,,,,,,,
299142.0,253139.0,,,,,,,,
299147.0,253176.0,,,,,,,,
299153.0,253161.0,,,,,,,,
299158.0,253179.0,,,,,,,,
299163.0,253203.0,,,,,,,,
299167.0,253228.0,,,,,,,,
299173.0,253262.0,,,,,,,,
299178.0,253296.0,,,,,,,,
299183.0,253315.0,,,,,,,,
299188.0,253381.0,,,,,,,,
299193.0,253436.0,,,,,,,,
299198.0,253482.0,,,,,,,,
299203.0,253524.0,,,,,,,,
299208.0,253587.0,,,,,,,,
299213.0,253662.0,,,,,,,,
299218.0,253719.0,,,,,,,,
299223.0,253778.0,,,,,,,,
299228.0,253836.0,,,,,,,,
299233.0,253893.0,,,,,,,,
299238.0,253948.0,,,,,,,,
299243.0,254044.0,,,,,,,,
299248.0,254096.0,,,,,,,,
299253.0,254166.0,,,,,,,,
299258.0,254237.0,,,,,,,,
299263.0,254323.0,,,,,,,,
299268.0,254379.0,,,,,,,,
299273.0,254464.0,,,,,,,,
299278.0,254521.0,,,,,,,,
299283.0,254585.0,,,,,,,,
299288.0,254646.0,,,,,,,,
299293.0,254717.0,,,,,,,,
299298.0,254793.0,,,,,,,,
299303.0,254868.0,,,,,,,,
299308.0,254916.0,,,,,,,,
299313.0,254983.0,,,,,,,,
299318.0,255044.0,,,,,,,,
299323.0,255097.0,,,,,,,,
299328.0,255182.0,,,,,,,,
299333.0,255236.0,,,,,,,,
299338.0,255289.0,,,,,,,,
299343.0,255349.0,,,,,,,,
299348.0,255438.0,,,,,,,,
299353.0,255479.0,,,,,,,,
299358.0,255513.0,,,,,,,,
299363.0,255591.0,,,,,,,,
299368.0,255655.0,,,,,,,,
299373.0,255712.0,,,,,,,,
299378.0,255769.0,,,,,,,,
299383.0,255822.0,,,,,,,,
299388.0,255885.0,,,,,,,,
299393.0,255931.0,,,,,,,,
299398.0,255984.0,,,,,,,,
299403.0,256029.0,,,,,,,,
299408.0,256086.0,,,,,,,,
299413.0,256108.0,,,,,,,,
299418.0,256160.0,,,,,,,,
299423.0,256213.0,,,,,,,,
299428.0,256268.0,,,,,,,,
299433.0,256285.0,,,,,,,,
299438.0,256331.0,,,,,,,,
299443.0,256357.0,,,,,,,,
299448.0,256390.0,,,,,,,,
299453.0,256454.0,,,,,,,,
299458.0,256482.0,,,,,,,,
299464.0,256528.0,,,,,,,,
299468.0,256566.0,,,,,,,,
299473.0,256606.0,,,,,,,,
299478.0,256646.0,,,,,,,,
299484.0,256679.0,,,,,,,,
299489.0,256712.0,,,,,,,,
299494.0,256733.0,,,,,,,,
299498.0,256797.0,,,,,,,,
299503.0,256812.0,,,,,,,,
299509.0,256864.0,,,,,,,,
299514.0,256888.0,,,,,,,,
299519.0,256928.0,,,,,,,,
299524.0,256944.0,,,,,,,,
299529.0,256987.0,,,,,,,,
299534.0,257010.0,,,,,,,,
299539.0,257021.0,,,,,,,,
299544.0,257063.0,,,,,,,,
299549.0,257089.0,,,,,,,,
299554.0,257121.0,,,,,,,,
299559.0,257160.0,,,,,,,,
299564.0,257162.0,,,,,,,,
299569.0,257198.0,,,,,,,,
299574.0,257233.0,,,,,,,,
299579.0,257261.0,,,,,,,,
299584.0,257307.0,,,,,,,,
299589.0,257340.0,,,,,,,,
299594.0,257371.0,,,,,,,,
299599.0,257405.0,,,,,,,,
299604.0,257413.0,,,,,,,,
299609.0,257438.0,,,,,,,,
299614.0,257478.0,,,,,,,,
299619.0,257493.0,,,,,,,,
299624.0,257533.0,,,,,,,,
299629.0,257542.0,,,,,,,,
299634.0,257577.0,,,,,,,,
299639.0,257625.0,,,,,,,,
299644.0,257650.0,,,,,,,,
299649.0,257695.0,,,,,,,,
299654.0,257723.0,,,,,,,,
299659.0,257771.0,,,,,,,,
299664.0,257792.0,,,,,,,,
299669.0,257872.0,,,,,,,,
299674.0,257899.0,,,,,,,,
299679.0,257965.0,,,,,,,,
299684.0,257989.0,,,,,,,,
299689.0,258037.0,,,,,,,,
299694.0,258073.0,,,,,,,,
299699.0,258144.0,,,,,,,,
299704.0,258171.0,,,,,,,,
299709.0,258225.0,,,,,,,,
299714.0,258240.0,,,,,,,,
299719.0,258251.0,,,,,,,,
299724.0,258212.0,,,,,,,,
299729.0,258139.0,,,,,,,,
299734.0,257999.0,,,,,,,,
299739.0,257832.0,,,,,,,,
299744.0,257656.0,,,,,,,,
299749.0,257371.0,,,,,,,,
299754.0,257050.0,,,,,,,,
299759.0,256729.0,,,,,,,,
299764.0,256333.0,,,,,,,,
299769.0,255927.0,,,,,,,,
299774.0,255554.0,,,,,,,,
299779.0,255113.0,,,,,,,,
299784.0,254699.0,,,,,,,,
299789.0,254287.0,,,,,,,,
299794.0,253877.0,,,,,,,,
299799.0,253479.0,,,,,,,,
299805.0,253117.0,,,,,,,,
299809.0,252781.0,,,,,,,,
299814.0,252490.0,,,,,,,,
299819.0,252200.0,,,,,,,,
299825.0,251940.0,,,,,,,,
299830.0,251721.0,,,,,,,,
299834.0,251529.0,,,,,,,,
299839.0,251345.0,,,,,,,,
299845.0,251217.0,,,,,,,,
299850.0,251137.0,,,,,,,,
299855.0,251038.0,,,,,,,,
299860.0,250984.0,,,,,,,,
299865.0,250914.0,,,,,,,,
299870.0,250870.0,,,,,,,,
299875.0,250850.0,,,,,,,,
299880.0,250863.0,,,,,,,,
299885.0,250848.0,,,,,,,,
299890.0,250840.0,,,,,,,,
299895.0,250893.0,,,,,,,,
299900.0,250901.0,,,,,,,,
299905.0,250960.0,,,,,,,,
299910.0,250981.0,,,,,,,,
299915.0,251025.0,,,,,,,,
299920.0,251067.0,,,,,,,,
299925.0,251102.0,,,,,,,,
299930.0,251177.0,,,,,,,,
299935.0,251233.0,,,,,,,,
299940.0,251276.0,,,,,,,,
299945.0,251335.0,,,,,,,,
299950.0,251404.0,,,,,,,,
299955.0,251452.0,,,,,,,,
299960.0,251527.0,,,,,,,,
299965.0,251600.0,,,,,,,,
299970.0,251688.0,,,,,,,,
299975.0,251767.0,,,,,,,,
299980.0,251848.0,,,,,,,,
299985.0,251943.0,,,,,,,,
299990.0,252060.0,,,,,,,,
299995.0,252155.0,,,,,,,,
300000.0,252275.0,,,,,,,,
300005.0,252372.0,,,,,,,,
300010.0,252503.0,,,,,,,,
300015.0,252594.0,,,,,,,,
300020.0,252677.0,,,,,,,,
300025.0,252784.0,,,,,,,,
300030.0,252878.0,,,,,,,,
300035.0,252949.0,,,,,,,,
300040.0,253018.0,,,,,,,,
300045.0,253055.0,,,,,,,,
300050.0,253131.0,,,,,,,,
300055.0,253167.0,,,,,,,,
300060.0,253198.0,,,,,,,,
300065.0,253203.0,,,,,,,,
300070.0,253222.0,,,,,,,,
300075.0,253227.0,,,,,,,,
300080.0,253209.0,,,,,,,,
300085.0,253180.0,,,,,,,,
300090.0,253163.0,,,,,,,,
300095.0,253152.0,,,,,,,,
300100.0,253101.0,,,,,,,,
300105.0,253071.0,,,,,,,,
300110.0,253016.0,,,,,,,,
300115.0,252981.0,,,,,,,,
300120.0,252921.0,,,,,,,,
300126.0,252900.0,,,,,,,,
300130.0,252855.0,,,,,,,,
300135.0,252827.0,,,,,,,,
300140.0,252816.0,,,,,,,,
300146.0,252767.0,,,,,,,,
300151.0,252771.0,,,,,,,,
300155.0,252757.0,,,,,,,,
300160.0,252758.0,,,,,,,,
300166.0,252749.0,,,,,,,,
300171.0,252769.0,,,,,,,,
300176.0,252762.0,,,,,,,,
300180.0,252784.0,,,,,,,,
300186.0,252815.0,,,,,,,,
300191.0,252835.0,,,,,,,,
300196.0,252872.0,,,,,,,,
300201.0,252931.0,,,,,,,,
300206.0,252960.0,,,,,,,,
300211.0,252995.0,,,,,,,,
300216.0,253053.0,,,,,,,,
300221.0,253079.0,,,,,,,,
300226.0,253130.0,,,,,,,,
300231.0,253203.0,,,,,,,,
300236.0,253272.0,,,,,,,,
300241.0,253310.0,,,,,,,,
300246.0,253402.0,,,,,,,,
300251.0,253470.0,,,,,,,,
300256.0,253542.0,,,,,,,,
300261.0,253635.0,,,,,,,,
300266.0,253710.0,,,,,,,,
300271.0,253792.0,,,,,,,,
300276.0,253867.0,,,,,,,,
300281.0,253930.0,,,,,,,,
300286.0,254034.0,,,,,,,,
300291.0,254085.0,,,,,,,,
300296.0,254185.0,,,,,,,,
300301.0,254267.0,,,,,,,,
300306.0,254339.0,,,,,,,,
300311.0,254448.0,,,,,,,,
300316.0,254489.0,,,,,,,,
300321.0,254560.0,,,,,,,,
300326.0,254661.0,,,,,,,,
300331.0,254735.0,,,,,,,,
300336.0,254779.0,,,,,,,,
300341.0,254882.0,,,,,,,,
300346.0,254964.0,,,,,,,,
300351.0,255027.0,,,,,,,,
300356.0,255109.0,,,,,,,,
300361.0,255184.0,,,,,,,,
300366.0,255236.0,,,,,,,,
300371.0,255307.0,,,,,,,,
300376.0,255391.0,,,,,,,,
300381.0,255463.0,,,,,,,,
300386.0,255525.0,,,,,,,,
300391.0,255615.0,,,,,,,,
300396.0,255666.0,,,,,,,,
300401.0,255756.0,,,,,,,,
300406.0,255803.0,,,,,,,,
300411.0,255865.0,,,,,,,,
300416.0,255940.0,,,,,,,,
300421.0,256002.0,,,,,,,,
300426.0,256048.0,,,,,,,,
300431.0,256128.0,,,,,,,,
300436.0,256196.0,,,,,,,,
300441.0,256233.0,,,,,,,,
300446.0,256302.0,,,,,,,,
300451.0,256349.0,,,,,,,,
300456.0,256391.0,,,,,,,,
300461.0,256464.0,,,,,,,,
300466.0,256531.0,,,,,,,,
300471.0,256551.0,,,,,,,,
300476.0,256610.0,,,,,,,,
300482.0,256671.0,,,,,,,,
300487.0,256727.0,,,,,,,,
300491.0,256784.0,,,,,,,,
300496.0,256817.0,,,,,,,,
300502.0,256857.0,,,,,,,,
300507.0,256936.0,,,,,,,,
300512.0,256980.0,,,,,,,,
300516.0,257020.0,,,,,,,,
300522.0,257067.0,,,,,,,,
300527.0,257125.0,,,,,,,,
300532.0,257161.0,,,,,,,,
300537.0,257195.0,,,,,,,,
300542.0,257257.0,,,,,,,,
300547.0,257290.0,,,,,,,,
300552.0,257336.0,,,,,,,,
300557.0,257371.0,,,,,,,,
300562.0,257425.0,,,,,,,,
300567.0,257469.0,,,,,,,,
300572.0,257509.0,,,,,,,,
300577.0,257554.0,,,,,,,,
300582.0,257619.0,,,,,,,,
300587.0,257646.0,,,,,,,,
300592.0,257704.0,,,,,,,,
300597.0,257750.0,,,,,,,,
300602.0,257793.0,,,,,,,,
300607.0,257835.0,,,,,,,,
300612.0,257890.0,,,,,,,,
300617.0,257910.0,,,,,,,,
300622.0,257971.0,,,,,,,,
300627.0,258013.0,,,,,,,,
300632.0,258051.0,,,,,,,,
300637.0,258094.0,,,,,,,,
300642.0,258125.0,,,,,,,,
300647.0,258178.0,,,,,,,,
300652.0,258218.0,,,,,,,,
300657.0,258235.0,,,,,,,,
300662.0,258310.0,,,,,,,,
300667.0,258375.0,,,,,,,,
300672.0,258414.0,,,,,,,,
300677.0,258431.0,,,,,,,,
300682.0,258485.0,,,,,,,,
300687.0,258524.0,,,,,,,,
300692.0,258569.0,,,,,,,,
300697.0,258637.0,,,,,,,,
300702.0,258669.0,,,,,,,,
300707.0,258747.0,,,,,,,,
300712.0,258782.0,,,,,,,,
300717.0,258847.0,,,,,,,,
300722.0,258897.0,,,,,,,,
300727.0,258959.0,,,,,,,,
300732.0,259020.0,,,,,,,,
300737.0,259045.0,,,,,,,,
300742.0,259076.0,,,,,,,,
300747.0,259106.0,,,,,,,,
300752.0,259087.0,,,,,,,,
300757.0,259008.0,,,,,,,,
300762.0,258915.0,,,,,,,,
300767.0,258729.0,,,,,,,,
300772.0,258510.0,,,,,,,,
300777.0,258245.0,,,,,,,,
300782.0,257962.0,,,,,,,,
300787.0,257585.0,,,,,,,,
300792.0,257241.0,,,,,,,,
300797.0,256832.0,,,,,,,,
300802.0,256437.0,,,,,,,,
300807.0,256021.0,,,,,,,,
300812.0,255616.0,,,,,,,,
300818.0,255198.0,,,,,,,,
300822.0,254793.0,,,,,,,,
300827.0,254401.0,,,,,,,,
300832.0,254051.0,,,,,,,,
300838.0,253731.0,,,,,,,,
300843.0,253391.0,,,,,,,,
300847.0,253162.0,,,,,,,,
300852.0,252903.0,,,,,,,,
300858.0,252697.0,,,,,,,,
300863.0,252514.0,,,,,,,,
300868.0,252349.0,,,,,,,,
300873.0,252244.0,,,,,,,,
300878.0,252146.0,,,,,,,,
300883.0,252068.0,,,,,,,,
300888.0,252005.0,,,,,,,,
300893.0,251938.0,,,,,,,,
300898.0,251926.0,,,,,,,,
300903.0,251929.0,,,,,,,,
300908.0,251939.0,,,,,,,,
300913.0,251943.0,,,,,,,,
300918.0,251960.0,,,,,,,,
300923.0,252015.0,,,,,,,,
300928.0,252020.0,,,,,,,,
300933.0,252073.0,,,,,,,,
300938.0,252131.0,,,,,,,,
300943.0,252192.0,,,,,,,,
300948.0,252254.0,,,,,,,,
300953.0,252330.0,,,,,,,,
300958.0,252399.0,,,,,,,,
300963.0,252471.0,,,,,,,,
300968.0,252533.0,,,,,,,,
300973.0,252616.0,,,,,,,,
300978.0,252688.0,,,,,,,,
300983.0,252773.0,,,,,,,,
300988.0,252844.0,,,,,,,,
300993.0,252901.0,,,,,,,,
300998.0,253044.0,,,,,,,,
301003.0,253128.0,,,,,,,,
301008.0,253225.0,,,,,,,,
301013.0,253333.0,,,,,,,,
301018.0,253440.0,,,,,,,,
301023.0,253554.0,,,,,,,,
301028.0,253674.0,,,,,,,,
301033.0,253777.0,,,,,,,,
301038.0,253880.0,,,,,,,,
301043.0,253982.0,,,,,,,,
301048.0,254101.0,,,,,,,,
301053.0,254220.0,,,,,,,,
301058.0,254314.0,,,,,,,,
301063.0,254379.0,,,,,,,,
301068.0,254458.0,,,,,,,,
301073.0,254508.0,,,,,,,,
301078.0,254553.0,,,,,,,,
301083.0,254609.0,,,,,,,,
301088.0,254634.0,,,,,,,,
301093.0,254675.0,,,,,,,,
301098.0,254655.0,,,,,,,,
301103.0,254641.0,,,,,,,,
301108.0,254640.0,,,,,,,,
301113.0,254612.0,,,,,,,,
301118.0,254609.0,,,,,,,,
301123.0,254540.0,,,,,,,,
301128.0,254509.0,,,,,,,,
301133.0,254465.0,,,,,,,,
301138.0,254426.0,,,,,,,,
301143.0,254389.0,,,,,,,,
301148.0,254340.0,,,,,,,,
301153.0,254305.0,,,,,,,,
301158.0,254247.0,,,,,,,,
301163.0,254220.0,,,,,,,,
301168.0,254187.0,,,,,,,,
301174.0,254184.0,,,,,,,,
301179.0,254142.0,,,,,,,,
301183.0,254136.0,,,,,,,,
301188.0,254155.0,,,,,,,,
301194.0,254142.0,,,,,,,,
301199.0,254148.0,,,,,,,,
301204.0,254176.0,,,,,,,,
301209.0,254182.0,,,,,,,,
301214.0,254211.0,,,,,,,,
301219.0,254240.0,,,,,,,,
301224.0,254292.0,,,,,,,,
301229.0,254331.0,,,,,,,,
301234.0,254367.0,,,,,,,,
301239.0,254420.0,,,,,,,,
301244.0,254478.0,,,,,,,,
301249.0,254517.0,,,,,,,,
301254.0,254557.0,,,,,,,,
301259.0,254643.0,,,,,,,,
301264.0,254725.0,,,,,,,,
301269.0,254776.0,,,,,,,,
301274.0,254834.0,,,,,,,,
301279.0,254925.0,,,,,,,,
301284.0,255002.0,,,,,,,,
301289.0,255067.0,,,,,,,,
301294.0,255126.0,,,,,,,,
301299.0,255200.0,,,,,,,,
301304.0,255271.0,,,,,,,,
301309.0,255328.0,,,,,,,,
301314.0,255418.0,,,,,,,,
301319.0,255474.0,,,,,,,,
301324.0,255545.0,,,,,,,,
301329.0,255601.0,,,,,,,,
301334.0,255683.0,,,,,,,,
301339.0,255760.0,,,,,,,,
301344.0,255818.0,,,,,,,,
301349.0,255894.0,,,,,,,,
301354.0,255947.0,,,,,,,,
301359.0,256013.0,,,,,,,,
301364.0,256077.0,,,,,,,,
301369.0,256163.0,,,,,,,,
301374.0,256229.0,,,,,,,,
301379.0,256275.0,,,,,,,,
301384.0,256318.0,,,,,,,,
301389.0,256400.0,,,,,,,,
301394.0,256444.0,,,,,,,,
301399.0,256491.0,,,,,,,,
301404.0,256544.0,,,,,,,,
301409.0,256591.0,,,,,,,,
301414.0,256649.0,,,,,,,,
301419.0,256699.0,,,,,,,,
301424.0,256747.0,,,,,,,,
301429.0,256792.0,,,,,,,,
301434.0,256836.0,,,,,,,,
301439.0,256896.0,,,,,,,,
301444.0,256928.0,,,,,,,,
301449.0,256994.0,,,,,,,,
301454.0,257034.0,,,,,,,,
301459.0,257074.0,,,,,,,,
301464.0,257107.0,,,,,,,,
301469.0,257140.0,,,,,,,,
301474.0,257204.0,,,,,,,,
301479.0,257274.0,,,,,,,,
301484.0,257299.0,,,,,,,,
301489.0,257355.0,,,,,,,,
301494.0,257354.0,,,,,,,,
301499.0,257392.0,,,,,,,,
301504.0,257436.0,,,,,,,,
301509.0,257453.0,,,,,,,,
301514.0,257483.0,,,,,,,,
301520.0,257520.0,,,,,,,,
301525.0,257556.0,,,,,,,,
301529.0,257572.0,,,,,,,,
301535.0,257618.0,,,,,,,,
301540.0,257637.0,,,,,,,,
301545.0,257665.0,,,,,,,,
301550.0,257672.0,,,,,,,,
301554.0,257708.0,,,,,,,,
301560.0,257757.0,,,,,,,,
301565.0,257778.0,,,,,,,,
301570.0,257762.0,,,,,,,,
301575.0,257795.0,,,,,,,,
301580.0,257808.0,,,,,,,,
301585.0,257847.0,,,,,,,,
301590.0,257881.0,,,,,,,,
301595.0,257885.0,,,,,,,,
301600.0,257921.0,,,,,,,,
301605.0,257935.0,,,,,,,,
301610.0,257961.0,,,,,,,,
301615.0,257994.0,,,,,,,,
301620.0,257996.0,,,,,,,,
301625.0,258011.0,,,,,,,,
301630.0,258030.0,,,,,,,,
301635.0,258066.0,,,,,,,,
301640.0,258072.0,,,,,,,,
301645.0,258069.0,,,,,,,,
301650.0,258107.0,,,,,,,,
301655.0,258131.0,,,,,,,,
301660.0,258142.0,,,,,,,,
301665.0,258197.0,,,,,,,,
301670.0,258217.0,,,,,,,,
301675.0,258258.0,,,,,,,,
301680.0,258287.0,,,,,,,,
301685.0,258319.0,,,,,,,,
301690.0,258373.0,,,,,,,,
301695.0,258403.0,,,,,,,,
301700.0,258422.0,,,,,,,,
301705.0,258457.0,,,,,,,,
301710.0,258488.0,,,,,,,,
301715.0,258526.0,,,,,,,,
301720.0,258551.0,,,,,,,,
301725.0,258563.0,,,,,,,,
301730.0,258578.0,,,,,,,,
301735.0,258556.0,,,,,,,,
301740.0,258496.0,,,,,,,,
301745.0,258376.0,,,,,,,,
301750.0,258230.0,,,,,,,,
301755.0,258029.0,,,,,,,,
301760.0,257776.0,,,,,,,,
301765.0,257470.0,,,,,,,,
301770.0,257128.0,,,,,,,,
301775.0,256774.0,,,,,,,,
301780.0,256379.0,,,,,,,,
301785.0,255968.0,,,,,,,,
301790.0,255565.0,,,,,,,,
301795.0,255141.0,,,,,,,,
301800.0,254696.0,,,,,,,,
301805.0,254304.0,,,,,,,,
301810.0,253924.0,,,,,,,,
301815.0,253548.0,,,,,,,,
301820.0,253212.0,,,,,,,,
301825.0,252893.0,,,,,,,,
301830.0,252616.0,,,,,,,,
301835.0,252325.0,,,,,,,,
301840.0,252152.0,,,,,,,,
301846.0,251920.0,,,,,,,,
301851.0,251740.0,,,,,,,,
301855.0,251613.0,,,,,,,,
301860.0,251480.0,,,,,,,,
301866.0,251404.0,,,,,,,,
301871.0,251332.0,,,,,,,,
301876.0,251258.0,,,,,,,,
301880.0,251236.0,,,,,,,,
301886.0,251228.0,,,,,,,,
301891.0,251193.0,,,,,,,,
301896.0,251211.0,,,,,,,,
301901.0,251222.0,,,,,,,,
301906.0,251228.0,,,,,,,,
301911.0,251253.0,,,,,,,,
301916.0,251323.0,,,,,,,,
301921.0,251325.0,,,,,,,,
301926.0,251386.0,,,,,,,,
301931.0,251440.0,,,,,,,,
301936.0,251492.0,,,,,,,,
301941.0,251569.0,,,,,,,,
301946.0,251603.0,,,,,,,,
301951.0,251690.0,,,,,,,,
301956.0,251725.0,,,,,,,,
301961.0,251818.0,,,,,,,,
301966.0,251916.0,,,,,,,,
301971.0,251978.0,,,,,,,,
301976.0,252053.0,,,,,,,,
301981.0,252135.0,,,,,,,,
301986.0,252243.0,,,,,,,,
301991.0,252334.0,,,,,,,,
301996.0,252451.0,,,,,,,,
302001.0,252539.0,,,,,,,,
302006.0,252658.0,,,,,,,,
302011.0,252768.0,,,,,,,,
302016.0,252880.0,,,,,,,,
302021.0,252963.0,,,,,,,,
302026.0,253069.0,,,,,,,,
302031.0,253160.0,,,,,,,,
302036.0,253256.0,,,,,,,,
302041.0,253350.0,,,,,,,,
302046.0,253408.0,,,,,,,,
302051.0,253474.0,,,,,,,,
302056.0,253525.0,,,,,,,,
302061.0,253552.0,,,,,,,,
302066.0,253585.0,,,,,,,,
302071.0,253603.0,,,,,,,,
302076.0,253607.0,,,,,,,,
302081.0,253586.0,,,,,,,,
302086.0,253577.0,,,,,,,,
302091.0,253528.0,,,,,,,,
302096.0,253514.0,,,,,,,,
302101.0,253471.0,,,,,,,,
302106.0,253450.0,,,,,,,,
302111.0,253387.0,,,,,,,,
302116.0,253335.0,,,,,,,,
302121.0,253285.0,,,,,,,,
302126.0,253226.0,,,,,,,,
302131.0,253174.0,,,,,,,,
302136.0,253139.0,,,,,,,,
302141.0,253073.0,,,,,,,,
302146.0,253088.0,,,,,,,,
302151.0,253035.0,,,,,,,,
302156.0,252996.0,,,,,,,,
302161.0,252962.0,,,,,,,,
302166.0,252946.0,,,,,,,,
302171.0,252921.0,,,,,,,,
302176.0,252927.0,,,,,,,,
302181.0,252938.0,,,,,,,,
302186.0,252948.0,,,,,,,,
302191.0,252979.0,,,,,,,,
302197.0,252997.0,,,,,,,,
302202.0,253017.0,,,,,,,,
302206.0,253052.0,,,,,,,,
302211.0,253092.0,,,,,,,,
302217.0,253138.0,,,,,,,,
302222.0,253193.0,,,,,,,,
302227.0,253251.0,,,,,,,,
302231.0,253281.0,,,,,,,,
302237.0,253321.0,,,,,,,,
302242.0,253400.0,,,,,,,,
302247.0,253424.0,,,,,,,,
302252.0,253496.0,,,,,,,,
302257.0,253551.0,,,,,,,,
302262.0,253602.0,,,,,,,,
302267.0,253675.0,,,,,,,,
302272.0,253728.0,,,,,,,,
302277.0,253792.0,,,,,,,,
302282.0,253858.0,,,,,,,,
302287.0,253927.0,,,,,,,,
302292.0,253994.0,,,,,,,,
302297.0,254077.0,,,,,,,,
302302.0,254134.0,,,,,,,,
302307.0,254204.0,,,,,,,,
302312.0,254290.0,,,,,,,,
302317.0,254358.0,,,,,,,,
302322.0,254410.0,,,,,,,,
302327.0,254481.0,,,,,,,,
302332.0,254573.0,,,,,,,,
302337.0,254624.0,,,,,,,,
302342.0,254714.0,,,,,,,,
302347.0,254771.0,,,,,,,,
302352.0,254823.0,,,,,,,,
302357.0,254859.0,,,,,,,,
302362.0,254931.0,,,,,,,,
302367.0,254983.0,,,,,,,,
302372.0,255056.0,,,,,,,,
302377.0,255089.0,,,,,,,,
302382.0,255151.0,,,,,,,,
302387.0,255198.0,,,,,,,,
302392.0,255255.0,,,,,,,,
302397.0,255311.0,,,,,,,,
302402.0,255348.0,,,,,,,,
302407.0,255424.0,,,,,,,,
302412.0,255419.0,,,,,,,,
302417.0,255499.0,,,,,,,,
302422.0,255547.0,,,,,,,,
302427.0,255591.0,,,,,,,,
302432.0,255623.0,,,,,,,,
302437.0,255685.0,,,,,,,,
302442.0,255724.0,,,,,,,,
302447.0,255776.0,,,,,,,,
302452.0,255802.0,,,,,,,,
302457.0,255851.0,,,,,,,,
302462.0,255888.0,,,,,,,,
302467.0,255927.0,,,,,,,,
302472.0,255962.0,,,,,,,,
302477.0,255994.0,,,,,,,,
302482.0,256043.0,,,,,,,,
302487.0,256063.0,,,,,,,,
302492.0,256101.0,,,,,,,,
302497.0,256140.0,,,,,,,,
302502.0,256176.0,,,,,,,,
302507.0,256207.0,,,,,,,,
302512.0,256219.0,,,,,,,,
302517.0,256277.0,,,,,,,,
302522.0,256298.0,,,,,,,,
302527.0,256341.0,,,,,,,,
302532.0,256380.0,,,,,,,,
302538.0,256422.0,,,,,,,,
302543.0,256450.0,,,,,,,,
302547.0,256481.0,,,,,,,,
302552.0,256508.0,,,,,,,,
302558.0,256530.0,,,,,,,,
302563.0,256582.0,,,,,,,,
302568.0,256617.0,,,,,,,,
302572.0,256652.0,,,,,,,,
302578.0,256696.0,,,,,,,,
302583.0,256688.0,,,,,,,,
302588.0,256731.0,,,,,,,,
302593.0,256755.0,,,,,,,,
302598.0,256783.0,,,,,,,,
302603.0,256784.0,,,,,,,,
302608.0,256798.0,,,,,,,,
302613.0,256836.0,,,,,,,,
302618.0,256883.0,,,,,,,,
302623.0,256881.0,,,,,,,,
302628.0,256930.0,,,,,,,,
302633.0,256950.0,,,,,,,,
302638.0,256969.0,,,,,,,,
302643.0,256991.0,,,,,,,,
302648.0,257038.0,,,,,,,,
302653.0,257093.0,,,,,,,,
302658.0,257104.0,,,,,,,,
302663.0,257127.0,,,,,,,,
302668.0,257169.0,,,,,,,,
302673.0,257184.0,,,,,,,,
302678.0,257249.0,,,,,,,,
302683.0,257284.0,,,,,,,,
302688.0,257306.0,,,,,,,,
302693.0,257353.0,,,,,,,,
302698.0,257399.0,,,,,,,,
302703.0,257438.0,,,,,,,,
302708.0,257487.0,,,,,,,,
302713.0,257508.0,,,,,,,,
302718.0,257536.0,,,,,,,,
302723.0,257535.0,,,,,,,,
302728.0,257531.0,,,,,,,,
302733.0,257460.0,,,,,,,,
302738.0,257386.0,,,,,,,,
302743.0,257257.0,,,,,,,,
302748.0,257027.0,,,,,,,,
302753.0,256788.0,,,,,,,,
302758.0,256503.0,,,,,,,,
302763.0,256175.0,,,,,,,,
302768.0,255815.0,,,,,,,,
302773.0,255425.0,,,,,,,,
302778.0,255003.0,,,,,,,,
302783.0,254587.0,,,,,,,,
302788.0,254164.0,,,,,,,,
302793.0,253747.0,,,,,,,,
302798.0,253333.0,,,,,,,,
302803.0,252950.0,,,,,,,,
302808.0,252566.0,,,,,,,,
302813.0,252240.0,,,,,,,,
302818.0,251881.0,,,,,,,,
302823.0,251605.0,,,,,,,,
302828.0,251318.0,,,,,,,,
302833.0,251106.0,,,,,,,,
302838.0,250914.0,,,,,,,,
302843.0,250745.0,,,,,,,,
302848.0,250608.0,,,,,,,,
302853.0,250494.0,,,,,,,,
302858.0,250378.0,,,,,,,,
302863.0,250318.0,,,,,,,,
302868.0,250250.0,,,,,,,,
302874.0,250214.0,,,,,,,,
302878.0,250181.0,,,,,,,,
302883.0,250176.0,,,,,,,,
302888.0,250178.0,,,,,,,,
302894.0,250206.0,,,,,,,,
302899.0,250195.0,,,,,,,,
302904.0,250246.0,,,,,,,,
302908.0,250303.0,,,,,,,,
302914.0,250327.0,,,,,,,,
302919.0,250373.0,,,,,,,,
302924.0,250434.0,,,,,,,,
302929.0,250476.0,,,,,,,,
302934.0,250537.0,,,,,,,,
302939.0,250585.0,,,,,,,,
302944.0,250642.0,,,,,,,,
302949.0,250711.0,,,,,,,,
302954.0,250789.0,,,,,,,,
302959.0,250860.0,,,,,,,,
302964.0,250951.0,,,,,,,,
302969.0,250993.0,,,,,,,,
302974.0,251072.0,,,,,,,,
302979.0,251160.0,,,,,,,,
302984.0,251236.0,,,,,,,,
302989.0,251331.0,,,,,,,,
302994.0,251443.0,,,,,,,,
302999.0,251541.0,,,,,,,,
303004.0,251649.0,,,,,,,,
303009.0,251762.0,,,,,,,,
303014.0,251877.0,,,,,,,,
303019.0,251987.0,,,,,,,,
303024.0,252073.0,,,,,,,,
303029.0,252181.0,,,,,,,,
303034.0,252269.0,,,,,,,,
303039.0,252338.0,,,,,,,,
303044.0,252411.0,,,,,,,,
303049.0,252472.0,,,,,,,,
303054.0,252545.0,,,,,,,,
303059.0,252572.0,,,,,,,,
303064.0,252579.0,,,,,,,,
303069.0,252605.0,,,,,,,,
303074.0,252639.0,,,,,,,,
303079.0,252601.0,,,,,,,,
303084.0,252574.0,,,,,,,,
303089.0,252562.0,,,,,,,,
303094.0,252529.0,,,,,,,,
303099.0,252475.0,,,,,,,,
303104.0,252446.0,,,,,,,,
303109.0,252402.0,,,,,,,,
303114.0,252337.0,,,,,,,,
303119.0,252322.0,,,,,,,,
303124.0,252260.0,,,,,,,,
303129.0,252248.0,,,,,,,,
303134.0,252195.0,,,,,,,,
303139.0,252170.0,,,,,,,,
303144.0,252146.0,,,,,,,,
303149.0,252118.0,,,,,,,,
303154.0,252104.0,,,,,,,,
303159.0,252103.0,,,,,,,,
303164.0,252085.0,,,,,,,,
303169.0,252077.0,,,,,,,,
303174.0,252099.0,,,,,,,,
303179.0,252108.0,,,,,,,,
303184.0,252114.0,,,,,,,,
303189.0,252160.0,,,,,,,,
303194.0,252190.0,,,,,,,,
303199.0,252203.0,,,,,,,,
303204.0,252248.0,,,,,,,,
303209.0,252267.0,,,,,,,,
303214.0,252317.0,,,,,,,,
303219.0,252340.0,,,,,,,,
303225.0,252440.0,,,,,,,,
303230.0,252454.0,,,,,,,,
303234.0,252522.0,,,,,,,,
303239.0,252575.0,,,,,,,,
303245.0,252630.0,,,,,,,,
303250.0,252675.0,,,,,,,,
303255.0,252754.0,,,,,,,,
303259.0,252820.0,,,,,,,,
303265.0,252925.0,,,,,,,,
303270.0,252982.0,,,,,,,,
303275.0,253052.0,,,,,,,,
303280.0,253153.0,,,,,,,,
303285.0,253229.0,,,,,,,,
303290.0,253288.0,,,,,,,,
303295.0,253373.0,,,,,,,,
303300.0,253432.0,,,,,,,,
303305.0,253515.0,,,,,,,,
303310.0,253601.0,,,,,,,,
303315.0,253683.0,,,,,,,,
303320.0,253743.0,,,,,,,,
303325.0,253849.0,,,,,,,,
303330.0,253901.0,,,,,,,,
303335.0,253986.0,,,,,,,,
303340.0,254050.0,,,,,,,,
303345.0,254115.0,,,,,,,,
303350.0,254199.0,,,,,,,,
303355.0,254275.0,,,,,,,,
303360.0,254342.0,,,,,,,,
303365.0,254414.0,,,,,,,,
303370.0,254475.0,,,,,,,,
303375.0,254541.0,,,,,,,,
303380.0,254603.0,,,,,,,,
303385.0,254696.0,,,,,,,,
303390.0,254764.0,,,,,,,,
303395.0,254820.0,,,,,,,,
303400.0,254870.0,,,,,,,,
303405.0,254963.0,,,,,,,,
303410.0,255025.0,,,,,,,,
303415.0,255074.0,,,,,,,,
303420.0,255134.0,,,,,,,,
303425.0,255222.0,,,,,,,,
303430.0,255246.0,,,,,,,,
303435.0,255320.0,,,,,,,,
303440.0,255368.0,,,,,,,,
303445.0,255425.0,,,,,,,,
303450.0,255477.0,,,,,,,,
303455.0,255510.0,,,,,,,,
303460.0,255589.0,,,,,,,,
303465.0,255638.0,,,,,,,,
303470.0,255694.0,,,,,,,,
303475.0,255717.0,,,,,,,,
303480.0,255768.0,,,,,,,,
303485.0,255816.0,,,,,,,,
303490.0,255881.0,,,,,,,,
303495.0,255957.0,,,,,,,,
303500.0,255978.0,,,,,,,,
303505.0,256031.0,,,,,,,,
303510.0,256072.0,,,,,,,,
303515.0,256125.0,,,,,,,,
303520.0,256157.0,,,,,,,,
303525.0,256238.0,,,,,,,,
303530.0,256290.0,,,,,,,,
303535.0,256304.0,,,,,,,,
303540.0,256340.0,,,,,,,,
303545.0,256412.0,,,,,,,,
303550.0,256464.0,,,,,,,,
303555.0,256496.0,,,,,,,,
303560.0,256545.0,,,,,,,,
303565.0,256583.0,,,,,,,,
303571.0,256623.0,,,,,,,,
303576.0,256653.0,,,,,,,,
303580.0,256710.0,,,,,,,,
303585.0,256754.0,,,,,,,,
303591.0,256811.0,,,,,,,,
303596.0,256856.0,,,,,,,,
303601.0,256889.0,,,,,,,,
303605.0,256912.0,,,,,,,,
303611.0,256972.0,,,,,,,,
303616.0,257028.0,,,,,,,,
303621.0,257033.0,,,,,,,,
303626.0,257119.0,,,,,,,,
303631.0,257136.0,,,,,,,,
303636.0,257177.0,,,,,,,,
303641.0,257223.0,,,,,,,,
303646.0,257248.0,,,,,,,,
303651.0,257314.0,,,,,,,,
303656.0,257330.0,,,,,,,,
303661.0,257371.0,,,,,,,,
303666.0,257436.0,,,,,,,,
303671.0,257495.0,,,,,,,,
303676.0,257551.0,,,,,,,,
303681.0,257573.0,,,,,,,,
303686.0,257632.0,,,,,,,,
303691.0,257679.0,,,,,,,,
303696.0,257733.0,,,,,,,,
303701.0,257776.0,,,,,,,,
303706.0,257872.0,,,,,,,,
303711.0,257911.0,,,,,,,,
303716.0,257976.0,,,,,,,,
303721.0,258052.0,,,,,,,,
303726.0,258089.0,,,,,,,,
303731.0,258161.0,,,,,,,,
303736.0,258202.0,,,,,,,,
303741.0,258239.0,,,,,,,,
303746.0,258281.0,,,,,,,,
303751.0,258255.0,,,,,,,,
303756.0,258220.0,,,,,,,,
303761.0,258121.0,,,,,,,,
303766.0,257974.0,,,,,,,,
303771.0,257780.0,,,,,,,,
303776.0,257523.0,,,,,,,,
303781.0,257259.0,,,,,,,,
303786.0,256909.0,,,,,,,,
303791.0,256518.0,,,,,,,,
303796.0,256135.0,,,,,,,,
303801.0,255703.0,,,,,,,,
303806.0,255275.0,,,,,,,,
303811.0,254858.0,,,,,,,,
303816.0,254434.0,,,,,,,,
303821.0,254015.0,,,,,,,,
303826.0,253630.0,,,,,,,,
303831.0,253265.0,,,,,,,,
303836.0,252943.0,,,,,,,,
303841.0,252616.0,,,,,,,,
303846.0,252368.0,,,,,,,,
303851.0,252106.0,,,,,,,,
303856.0,251879.0,,,,,,,,
303861.0,251716.0,,,,,,,,
303866.0,251535.0,,,,,,,,
303871.0,251396.0,,,,,,,,
303876.0,251320.0,,,,,,,,
303881.0,251213.0,,,,,,,,
303886.0,251161.0,,,,,,,,
303891.0,251111.0,,,,,,,,
303896.0,251067.0,,,,,,,,
303901.0,251066.0,,,,,,,,
303907.0,251078.0,,,,,,,,
303911.0,251086.0,,,,,,,,
303916.0,251109.0,,,,,,,,
303921.0,251169.0,,,,,,,,
303927.0,251214.0,,,,,,,,
303932.0,251242.0,,,,,,,,
303937.0,251304.0,,,,,,,,
303941.0,251359.0,,,,,,,,
303947.0,251451.0,,,,,,,,
303952.0,251509.0,,,,,,,,
303957.0,251575.0,,,,,,,,
303962.0,251652.0,,,,,,,,
303967.0,251730.0,,,,,,,,
303972.0,251820.0,,,,,,,,
303977.0,251847.0,,,,,,,,
303982.0,251948.0,,,,,,,,
303987.0,252042.0,,,,,,,,
303992.0,252118.0,,,,,,,,
303997.0,252215.0,,,,,,,,
304002.0,252323.0,,,,,,,,
304007.0,252428.0,,,,,,,,
304012.0,252537.0,,,,,,,,
304017.0,252682.0,,,,,,,,
304022.0,252783.0,,,,,,,,
304027.0,252901.0,,,,,,,,
304032.0,253039.0,,,,,,,,
304037.0,253151.0,,,,,,,,
304042.0,253289.0,,,,,,,,
304047.0,253412.0,,,,,,,,
304052.0,253506.0,,,,,,,,
304057.0,253613.0,,,,,,,,
304062.0,253716.0,,,,,,,,
304067.0,253766.0,,,,,,,,
304072.0,253854.0,,,,,,,,
304077.0,253905.0,,,,,,,,
304082.0,253942.0,,,,,,,,
304087.0,253966.0,,,,,,,,
304092.0,254003.0,,,,,,,,
304097.0,254020.0,,,,,,,,
304102.0,254029.0,,,,,,,,
304107.0,254001.0,,,,,,,,
304112.0,253978.0,,,,,,,,
304117.0,253963.0,,,,,,,,
304122.0,253914.0,,,,,,,,
304127.0,253915.0,,,,,,,,
304132.0,253872.0,,,,,,,,
304137.0,253820.0,,,,,,,,
304142.0,253783.0,,,,,,,,
304147.0,253746.0,,,,,,,,
304152.0,253702.0,,,,,,,,
304157.0,253688.0,,,,,,,,
304162.0,253645.0,,,,,,,,
304167.0,253624.0,,,,,,,,
304172.0,253610.0,,,,,,,,
304177.0,253609.0,,,,,,,,
304182.0,253571.0,,,,,,,,
304187.0,253582.0,,,,,,,,
304192.0,253598.0,,,,,,,,
304197.0,253620.0,,,,,,,,
304202.0,253634.0,,,,,,,,
304207.0,253649.0,,,,,,,,
304212.0,253684.0,,,,,,,,
304217.0,253720.0,,,,,,,,
304222.0,253761.0,,,,,,,,
304227.0,253785.0,,,,,,,,
304232.0,253864.0,,,,,,,,
304238.0,253896.0,,,,,,,,
304242.0,253981.0,,,,,,,,
304247.0,254040.0,,,,,,,,
304252.0,254082.0,,,,,,,,
304258.0,254129.0,,,,,,,,
304263.0,254201.0,,,,,,,,
304268.0,254263.0,,,,,,,,
304272.0,254329.0,,,,,,,,
304277.0,254397.0,,,,,,,,
304283.0,254473.0,,,,,,,,
304288.0,254537.0,,,,,,,,
304293.0,254622.0,,,,,,,,
304298.0,254686.0,,,,,,,,
304303.0,254746.0,,,,,,,,
304308.0,254840.0,,,,,,,,
304313.0,254924.0,,,,,,,,
304318.0,254991.0,,,,,,,,
304323.0,255085.0,,,,,,,,
304328.0,255167.0,,,,,,,,
304333.0,255241.0,,,,,,,,
304338.0,255320.0,,,,,,,,
304343.0,255387.0,,,,,,,,
304348.0,255468.0,,,,,,,,
304353.0,255526.0,,,,,,,,
304358.0,255628.0,,,,,,,,
304363.0,255694.0,,,,,,,,
304368.0,255753.0,,,,,,,,
304373.0,255830.0,,,,,,,,
304378.0,255896.0,,,,,,,,
304383.0,255966.0,,,,,,,,
304388.0,256039.0,,,,,,,,
304393.0,256106.0,,,,,,,,
304398.0,256167.0,,,,,,,,
304403.0,256221.0,,,,,,,,
304408.0,256290.0,,,,,,,,
304413.0,256362.0,,,,,,,,
304418.0,256421.0,,,,,,,,
304423.0,256483.0,,,,,,,,
304428.0,256564.0,,,,,,,,
304433.0,256599.0,,,,,,,,
304438.0,256658.0,,,,,,,,
304443.0,256724.0,,,,,,,,
304448.0,256782.0,,,,,,,,
304453.0,256814.0,,,,,,,,
304458.0,256851.0,,,,,,,,
304463.0,256914.0,,,,,,,,
304468.0,256950.0,,,,,,,,
304473.0,257001.0,,,,,,,,
304478.0,257053.0,,,,,,,,
304483.0,257084.0,,,,,,,,
304488.0,257145.0,,,,,,,,
304493.0,257179.0,,,,,,,,
304498.0,257223.0,,,,,,,,
304503.0,257238.0,,,,,,,,
304508.0,257284.0,,,,,,,,
304513.0,257340.0,,,,,,,,
304518.0,257367.0,,,,,,,,
304523.0,257393.0,,,,,,,,
304528.0,257421.0,,,,,,,,
304533.0,257441.0,,,,,,,,
304538.0,257510.0,,,,,,,,
304543.0,257502.0,,,,,,,,
304548.0,257550.0,,,,,,,,
304553.0,257558.0,,,,,,,,
304558.0,257601.0,,,,,,,,
304563.0,257618.0,,,,,,,,
304568.0,257638.0,,,,,,,,
304574.0,257687.0,,,,,,,,
304579.0,257692.0,,,,,,,,
304583.0,257702.0,,,,,,,,
304588.0,257735.0,,,,,,,,
304594.0,257758.0,,,,,,,,
304599.0,257785.0,,,,,,,,
304604.0,257822.0,,,,,,,,
304608.0,257811.0,,,,,,,,
304614.0,257872.0,,,,,,,,
304619.0,257901.0,,,,,,,,
304624.0,257917.0,,,,,,,,
304629.0,257948.0,,,,,,,,
304634.0,257968.0,,,,,,,,
304639.0,257991.0,,,,,,,,
304644.0,257992.0,,,,,,,,
304649.0,258010.0,,,,,,,,
304654.0,258037.0,,,,,,,,
304659.0,258046.0,,,,,,,,
304664.0,258084.0,,,,,,,,
304669.0,258104.0,,,,,,,,
304674.0,258127.0,,,,,,,,
304679.0,258154.0,,,,,,,,
304684.0,258174.0,,,,,,,,
304689.0,258219.0,,,,,,,,
304694.0,258257.0,,,,,,,,
304699.0,258286.0,,,,,,,,
304704.0,258344.0,,,,,,,,
304709.0,258348.0,,,,,,,,
304714.0,258387.0,,,,,,,,
304719.0,258444.0,,,,,,,,
304724.0,258452.0,,,,,,,,
304729.0,258500.0,,,,,,,,
304734.0,258551.0,,,,,,,,
304739.0,258574.0,,,,,,,,
304744.0,258596.0,,,,,,,,
304749.0,258624.0,,,,,,,,
304754.0,258609.0,,,,,,,,
304759.0,258549.0,,,,,,,,
304764.0,258439.0,,,,,,,,
304769.0,258327.0,,,,,,,,
304774.0,258120.0,,,,,,,,
304779.0,257896.0,,,,,,,,
304784.0,257609.0,,,,,,,,
304789.0,257294.0,,,,,,,,
304794.0,256934.0,,,,,,,,
304799.0,256564.0,,,,,,,,
304804.0,256156.0,,,,,,,,
304809.0,255749.0,,,,,,,,
304814.0,255312.0,,,,,,,,
304819.0,254910.0,,,,,,,,
304824.0,254520.0,,,,,,,,
304829.0,254118.0,,,,,,,,
304834.0,253708.0,,,,,,,,
304839.0,253360.0,,,,,,,,
304844.0,253017.0,,,,,,,,
304849.0,252726.0,,,,,,,,
304854.0,252462.0,,,,,,,,
304859.0,252214.0,,,,,,,,
304864.0,251998.0,,,,,,,,
304869.0,251839.0,,,,,,,,
304874.0,251689.0,,,,,,,,
304879.0,251573.0,,,,,,,,
304884.0,251466.0,,,,,,,,
304889.0,251388.0,,,,,,,,
304894.0,251340.0,,,,,,,,
304899.0,251313.0,,,,,,,,
304904.0,251298.0,,,,,,,,
304910.0,251273.0,,,,,,,,
304914.0,251285.0,,,,,,,,
304919.0,251294.0,,,,,,,,
304924.0,251340.0,,,,,,,,
304930.0,251362.0,,,,,,,,
304935.0,251406.0,,,,,,,,
304940.0,251447.0,,,,,,,,
304944.0,251518.0,,,,,,,,
304950.0,251558.0,,,,,,,,
304955.0,251655.0,,,,,,,,
304960.0,251698.0,,,,,,,,
304965.0,251770.0,,,,,,,,
304970.0,251846.0,,,,,,,,
304975.0,251930.0,,,,,,,,
304980.0,251996.0,,,,,,,,
304985.0,252080.0,,,,,,,,
304990.0,252184.0,,,,,,,,
304995.0,252256.0,,,,,,,,
305000.0,252338.0,,,,,,,,
305005.0,252419.0,,,,,,,,
305010.0,252532.0,,,,,,,,
305015.0,252628.0,,,,,,,,
305020.0,252752.0,,,,,,,,
305025.0,252830.0,,,,,,,,
305030.0,252938.0,,,,,,,,
305035.0,253039.0,,,,,,,,
305040.0,253128.0,,,,,,,,
305045.0,253223.0,,,,,,,,
305050.0,253303.0,,,,,,,,
305055.0,253399.0,,,,,,,,
305060.0,253455.0,,,,,,,,
305065.0,253514.0,,,,,,,,
305070.0,253573.0,,,,,,,,
305075.0,253597.0,,,,,,,,
305080.0,253610.0,,,,,,,,
305085.0,253652.0,,,,,,,,
305090.0,253648.0,,,,,,,,
305095.0,253627.0,,,,,,,,
305100.0,253612.0,,,,,,,,
305105.0,253611.0,,,,,,,,
305110.0,253576.0,,,,,,,,
305115.0,253525.0,,,,,,,,
305120.0,253466.0,,,,,,,,
305125.0,253410.0,,,,,,,,
305130.0,253391.0,,,,,,,,
305135.0,253311.0,,,,,,,,
305140.0,253259.0,,,,,,,,
305145.0,253209.0,,,,,,,,
305150.0,253183.0,,,,,,,,
305155.0,253116.0,,,,,,,,
305160.0,253095.0,,,,,,,,
305165.0,253028.0,,,,,,,,
305170.0,253010.0,,,,,,,,
305175.0,252988.0,,,,,,,,
305180.0,252979.0,,,,,,,,
305185.0,252952.0,,,,,,,,
305190.0,252949.0,,,,,,,,
305195.0,252939.0,,,,,,,,
305200.0,252955.0,,,,,,,,
305205.0,252974.0,,,,,,,,
305210.0,252950.0,,,,,,,,
305215.0,252974.0,,,,,,,,
305220.0,253006.0,,,,,,,,
305225.0,253061.0,,,,,,,,
305230.0,253077.0,,,,,,,,
305235.0,253111.0,,,,,,,,
305240.0,253182.0,,,,,,,,
305245.0,253223.0,,,,,,,,
305251.0,253270.0,,,,,,,,
305255.0,253339.0,,,,,,,,
305260.0,253379.0,,,,,,,,
305265.0,253430.0,,,,,,,,
305271.0,253489.0,,,,,,,,
305276.0,253564.0,,,,,,,,
305281.0,253634.0,,,,,,,,
305285.0,253704.0,,,,,,,,
305291.0,253780.0,,,,,,,,
305296.0,253795.0,,,,,,,,
305301.0,253884.0,,,,,,,,
305306.0,253943.0,,,,,,,,
305311.0,254012.0,,,,,,,,
305316.0,254088.0,,,,,,,,
305321.0,254156.0,,,,,,,,
305326.0,254247.0,,,,,,,,
305331.0,254307.0,,,,,,,,
305336.0,254348.0,,,,,,,,
305341.0,254413.0,,,,,,,,
305346.0,254493.0,,,,,,,,
305351.0,254552.0,,,,,,,,
305356.0,254636.0,,,,,,,,
305361.0,254697.0,,,,,,,,
305366.0,254751.0,,,,,,,,
305371.0,254809.0,,,,,,,,
305376.0,254863.0,,,,,,,,
305381.0,254911.0,,,,,,,,
305386.0,254987.0,,,,,,,,
305391.0,255041.0,,,,,,,,
305396.0,255076.0,,,,,,,,
305401.0,255143.0,,,,,,,,
305406.0,255191.0,,,,,,,,
305411.0,255276.0,,,,,,,,
305416.0,255318.0,,,,,,,,
305421.0,255371.0,,,,,,,,
305426.0,255415.0,,,,,,,,
305431.0,255483.0,,,,,,,,
305436.0,255508.0,,,,,,,,
305441.0,255564.0,,,,,,,,
305446.0,255618.0,,,,,,,,
305451.0,255654.0,,,,,,,,
305456.0,255713.0,,,,,,,,
305461.0,255738.0,,,,,,,,
305466.0,255795.0,,,,,,,,
305471.0,255818.0,,,,,,,,
305476.0,255850.0,,,,,,,,
305481.0,255907.0,,,,,,,,
305486.0,255934.0,,,,,,,,
305491.0,255937.0,,,,,,,,
305496.0,255987.0,,,,,,,,
305501.0,256013.0,,,,,,,,
305506.0,256069.0,,,,,,,,
305511.0,256064.0,,,,,,,,
305516.0,256110.0,,,,,,,,
305521.0,256135.0,,,,,,,,
305526.0,256176.0,,,,,,,,
305531.0,256209.0,,,,,,,,
305536.0,256249.0,,,,,,,,
305541.0,256288.0,,,,,,,,
305546.0,256298.0,,,,,,,,
305551.0,256344.0,,,,,,,,
305556.0,256388.0,,,,,,,,
305561.0,256413.0,,,,,,,,
305566.0,256454.0,,,,,,,,
305571.0,256500.0,,,,,,,,
305577.0,256501.0,,,,,,,,
305581.0,256544.0,,,,,,,,
305586.0,256596.0,,,,,,,,
305591.0,256587.0,,,,,,,,
305597.0,256601.0,,,,,,,,
305602.0,256634.0,,,,,,,,
305607.0,256685.0,,,,,,,,
305611.0,256688.0,,,,,,,,
305617.0,256721.0,,,,,,,,
305622.0,256747.0,,,,,,,,
305627.0,256751.0,,,,,,,,
305632.0,256791.0,,,,,,,,
305637.0,256819.0,,,,,,,,
305642.0,256840.0,,,,,,,,
305647.0,256863.0,,,,,,,,
305652.0,256884.0,,,,,,,,
305657.0,256901.0,,,,,,,,
305662.0,256956.0,,,,,,,,
305667.0,256984.0,,,,,,,,
305672.0,257008.0,,,,,,,,
305677.0,257041.0,,,,,,,,
305682.0,257103.0,,,,,,,,
305687.0,257148.0,,,,,,,,
305692.0,257166.0,,,,,,,,
305697.0,257222.0,,,,,,,,
305702.0,257257.0,,,,,,,,
305707.0,257307.0,,,,,,,,
305712.0,257338.0,,,,,,,,
305717.0,257380.0,,,,,,,,
305722.0,257407.0,,,,,,,,
305727.0,257420.0,,,,,,,,
305732.0,257426.0,,,,,,,,
305737.0,257378.0,,,,,,,,
305742.0,257287.0,,,,,,,,
305747.0,257181.0,,,,,,,,
305752.0,257008.0,,,,,,,,
305757.0,256793.0,,,,,,,,
305762.0,256502.0,,,,,,,,
305767.0,256210.0,,,,,,,,
305772.0,255804.0,,,,,,,,
305777.0,255443.0,,,,,,,,
305782.0,255038.0,,,,,,,,
305787.0,254626.0,,,,,,,,
305792.0,254219.0,,,,,,,,
305797.0,253820.0,,,,,,,,
305802.0,253397.0,,,,,,,,
305807.0,253017.0,,,,,,,,
305812.0,252639.0,,,,,,,,
305817.0,252289.0,,,,,,,,
305822.0,251964.0,,,,,,,,
305827.0,251648.0,,,,,,,,
305832.0,251407.0,,,,,,,,
305837.0,251165.0,,,,,,,,
305842.0,250981.0,,,,,,,,
305847.0,250799.0,,,,,,,,
305852.0,250658.0,,,,,,,,
305857.0,250518.0,,,,,,,,
305862.0,250420.0,,,,,,,,
305867.0,250313.0,,,,,,,,
305872.0,250246.0,,,,,,,,
305877.0,250229.0,,,,,,,,
305882.0,250195.0,,,,,,,,
305887.0,250197.0,,,,,,,,
305892.0,250178.0,,,,,,,,
305897.0,250194.0,,,,,,,,
305902.0,250228.0,,,,,,,,
305907.0,250236.0,,,,,,,,
305912.0,250290.0,,,,,,,,
305918.0,250327.0,,,,,,,,
305922.0,250396.0,,,,,,,,
305927.0,250457.0,,,,,,,,
305932.0,250501.0,,,,,,,,
305938.0,250547.0,,,,,,,,
305943.0,250622.0,,,,,,,,
305947.0,250678.0,,,,,,,,
305952.0,250752.0,,,,,,,,
305958.0,250816.0,,,,,,,,
305963.0,250870.0,,,,,,,,
305968.0,250940.0,,,,,,,,
305973.0,251024.0,,,,,,,,
305978.0,251122.0,,,,,,,,
305983.0,251173.0,,,,,,,,
305988.0,251259.0,,,,,,,,
305993.0,251377.0,,,,,,,,
305998.0,251452.0,,,,,,,,
306003.0,251581.0,,,,,,,,
306008.0,251684.0,,,,,,,,
306013.0,251785.0,,,,,,,,
306018.0,251906.0,,,,,,,,
306023.0,252012.0,,,,,,,,
306028.0,252129.0,,,,,,,,
306033.0,252218.0,,,,,,,,
306038.0,252287.0,,,,,,,,
306043.0,252378.0,,,,,,,,
306048.0,252436.0,,,,,,,,
306053.0,252524.0,,,,,,,,
306058.0,252563.0,,,,,,,,
306063.0,252620.0,,,,,,,,
306068.0,252653.0,,,,,,,,
306073.0,252663.0,,,,,,,,
306078.0,252679.0,,,,,,,,
306083.0,252687.0,,,,,,,,
306088.0,252658.0,,,,,,,,
306093.0,252655.0,,,,,,,,
306098.0,252657.0,,,,,,,,
306103.0,252584.0,,,,,,,,
306108.0,252526.0,,,,,,,,
306113.0,252519.0,,,,,,,,
306118.0,252474.0,,,,,,,,
306123.0,252447.0,,,,,,,,
306128.0,252374.0,,,,,,,,
306133.0,252353.0,,,,,,,,
306138.0,252316.0,,,,,,,,
306143.0,252276.0,,,,,,,,
306148.0,252252.0,,,,,,,,
306153.0,252206.0,,,,,,,,
306158.0,252183.0,,,,,,,,
306163.0,252201.0,,,,,,,,
306168.0,252177.0,,,,,,,,
306173.0,252155.0,,,,,,,,
306178.0,252194.0,,,,,,,,
306183.0,252222.0,,,,,,,,
306188.0,252235.0,,,,,,,,
306193.0,252274.0,,,,,,,,
306198.0,252278.0,,,,,,,,
306203.0,252309.0,,,,,,,,
306208.0,252356.0,,,,,,,,
306213.0,252405.0,,,,,,,,
306218.0,252445.0,,,,,,,,
306223.0,252495.0,,,,,,,,
306228.0,252528.0,,,,,,,,
306233.0,252577.0,,,,,,,,
306238.0,252617.0,,,,,,,,
306244.0,252691.0,,,,,,,,
306248.0,252731.0,,,,,,,,
306253.0,252799.0,,,,,,,,
306258.0,252873.0,,,,,,,,
306264.0,252925.0,,,,,,,,
306269.0,252999.0,,,,,,,,
306273.0,253062.0,,,,,,,,
306278.0,253128.0,,,,,,,,
306284.0,253214.0,,,,,,,,
306289.0,253295.0,,,,,,,,
306294.0,253365.0,,,,,,,,
306299.0,253454.0,,,,,,,,
306304.0,253501.0,,,,,,,,
306309.0,253560.0,,,,,,,,
306314.0,253644.0,,,,,,,,
306319.0,253707.0,,,,,,,,
306324.0,253771.0,,,,,,,,
306329.0,253832.0,,,,,,,,
306334.0,253899.0,,,,,,,,
306339.0,253977.0,,,,,,,,
306344.0,254042.0,,,,,,,,
306349.0,254107.0,,,,,,,,
306354.0,254198.0,,,,,,,,
306359.0,254225.0,,,,,,,,
306364.0,254321.0,,,,,,,,
306369.0,254369.0,,,,,,,,
306374.0,254413.0,,,,,,,,
306379.0,254464.0,,,,,,,,
306384.0,254547.0,,,,,,,,
306389.0,254574.0,,,,,,,,
306394.0,254661.0,,,,,,,,
306399.0,254711.0,,,,,,,,
306404.0,254787.0,,,,,,,,
306409.0,254841.0,,,,,,,,
306414.0,254867.0,,,,,,,,
306419.0,254939.0,,,,,,,,
306424.0,254993.0,,,,,,,,
306429.0,255062.0,,,,,,,,
306434.0,255105.0,,,,,,,,
306439.0,255160.0,,,,,,,,
306444.0,255194.0,,,,,,,,
306449.0,255244.0,,,,,,,,
306454.0,255295.0,,,,,,,,
306459.0,255351.0,,,,,,,,
306464.0,255402.0,,,,,,,,
306469.0,255431.0,,,,,,,,
306474.0,255479.0,,,,,,,,
306479.0,255522.0,,,,,,,,
306484.0,255563.0,,,,,,,,
306489.0,255604.0,,,,,,,,
306494.0,255620.0,,,,,,,,
306499.0,255680.0,,,,,,,,
306504.0,255744.0,,,,,,,,
306509.0,255779.0,,,,,,,,
306514.0,255815.0,,,,,,,,
306519.0,255856.0,,,,,,,,
306524.0,255906.0,,,,,,,,
306529.0,255929.0,,,,,,,,
306534.0,255994.0,,,,,,,,
306539.0,256034.0,,,,,,,,
306544.0,256044.0,,,,,,,,
306549.0,256090.0,,,,,,,,
306554.0,256139.0,,,,,,,,
306559.0,256161.0,,,,,,,,
306564.0,256195.0,,,,,,,,
306569.0,256252.0,,,,,,,,
306574.0,256258.0,,,,,,,,
306579.0,256300.0,,,,,,,,
306585.0,256345.0,,,,,,,,
306589.0,256388.0,,,,,,,,
306594.0,256431.0,,,,,,,,
306599.0,256463.0,,,,,,,,
306605.0,256504.0,,,,,,,,
306610.0,256545.0,,,,,,,,
306615.0,256584.0,,,,,,,,
306619.0,256603.0,,,,,,,,
306624.0,256660.0,,,,,,,,
306630.0,256691.0,,,,,,,,
306635.0,256705.0,,,,,,,,
306640.0,256759.0,,,,,,,,
306645.0,256798.0,,,,,,,,
306650.0,256829.0,,,,,,,,
306655.0,256859.0,,,,,,,,
306660.0,256910.0,,,,,,,,
306665.0,256934.0,,,,,,,,
306670.0,256993.0,,,,,,,,
306675.0,257001.0,,,,,,,,
306680.0,257034.0,,,,,,,,
306685.0,257098.0,,,,,,,,
306690.0,257154.0,,,,,,,,
306695.0,257182.0,,,,,,,,
306700.0,257225.0,,,,,,,,
306705.0,257288.0,,,,,,,,
306710.0,257338.0,,,,,,,,
306715.0,257407.0,,,,,,,,
306720.0,257439.0,,,,,,,,
306725.0,257495.0,,,,,,,,
306730.0,257548.0,,,,,,,,
306735.0,257604.0,,,,,,,,
306740.0,257658.0,,,,,,,,
306745.0,257728.0,,,,,,,,
306750.0,257768.0,,,,,,,,
306755.0,257807.0,,,,,,,,
306760.0,257853.0,,,,,,,,
306765.0,257837.0,,,,,,,,
306770.0,257796.0,,,,,,,,
306775.0,257705.0,,,,,,,,
306780.0,257585.0,,,,,,,,
306785.0,257413.0,,,,,,,,
306790.0,257174.0,,,,,,,,
306795.0,256902.0,,,,,,,,
306800.0,256576.0,,,,,,,,
306805.0,256200.0,,,,,,,,
306810.0,255829.0,,,,,,,,
306815.0,255410.0,,,,,,,,
306820.0,254981.0,,,,,,,,
306825.0,254578.0,,,,,,,,
306830.0,254155.0,,,,,,,,
306835.0,253743.0,,,,,,,,
306840.0,253376.0,,,,,,,,
306845.0,253006.0,,,,,,,,
306850.0,252651.0,,,,,,,,
306855.0,252371.0,,,,,,,,
306860.0,252081.0,,,,,,,,
306865.0,251811.0,,,,,,,,
306870.0,251624.0,,,,,,,,
306875.0,251445.0,,,,,,,,
306880.0,251292.0,,,,,,,,
306885.0,251158.0,,,,,,,,
306890.0,251076.0,,,,,,,,
306895.0,251002.0,,,,,,,,
306900.0,250954.0,,,,,,,,
306905.0,250931.0,,,,,,,,
306910.0,250897.0,,,,,,,,
306916.0,250891.0,,,,,,,,
306920.0,250907.0,,,,,,,,
306925.0,250930.0,,,,,,,,
306930.0,250953.0,,,,,,,,
306935.0,250951.0,,,,,,,,
306941.0,251024.0,,,,,,,,
306946.0,251049.0,,,,,,,,
306951.0,251070.0,,,,,,,,
306955.0,251141.0,,,,,,,,
306961.0,251184.0,,,,,,,,
306966.0,251259.0,,,,,,,,
306971.0,251309.0,,,,,,,,
306976.0,251384.0,,,,,,,,
306981.0,251472.0,,,,,,,,
306986.0,251536.0,,,,,,,,
306991.0,251620.0,,,,,,,,
306996.0,251702.0,,,,,,,,
307001.0,251775.0,,,,,,,,
307006.0,251866.0,,,,,,,,
307011.0,251958.0,,,,,,,,
307016.0,252075.0,,,,,,,,
307021.0,252174.0,,,,,,,,
307026.0,252265.0,,,,,,,,
307031.0,252377.0,,,,,,,,
307036.0,252495.0,,,,,,,,
307041.0,252619.0,,,,,,,,
307046.0,252744.0,,,,,,,,
307051.0,252850.0,,,,,,,,
307056.0,252954.0,,,,,,,,
307061.0,253090.0,,,,,,,,
307066.0,253184.0,,,,,,,,
307071.0,253275.0,,,,,,,,
307076.0,253373.0,,,,,,,,
307081.0,253453.0,,,,,,,,
307086.0,253506.0,,,,,,,,
307091.0,253596.0,,,,,,,,
307096.0,253664.0,,,,,,,,
307101.0,253711.0,,,,,,,,
307106.0,253705.0,,,,,,,,
307111.0,253737.0,,,,,,,,
307116.0,253747.0,,,,,,,,
307121.0,253753.0,,,,,,,,
307126.0,253754.0,,,,,,,,
307131.0,253735.0,,,,,,,,
307136.0,253699.0,,,,,,,,
307141.0,253681.0,,,,,,,,
307146.0,253634.0,,,,,,,,
307151.0,253607.0,,,,,,,,
307156.0,253574.0,,,,,,,,
307161.0,253540.0,,,,,,,,
307166.0,253501.0,,,,,,,,
307171.0,253464.0,,,,,,,,
307176.0,253446.0,,,,,,,,
307181.0,253417.0,,,,,,,,
307186.0,253393.0,,,,,,,,
307191.0,253355.0,,,,,,,,
307196.0,253373.0,,,,,,,,
307201.0,253370.0,,,,,,,,
307206.0,253365.0,,,,,,,,
307211.0,253396.0,,,,,,,,
307216.0,253397.0,,,,,,,,
307221.0,253443.0,,,,,,,,
307226.0,253467.0,,,,,,,,
307231.0,253506.0,,,,,,,,
307236.0,253532.0,,,,,,,,
307241.0,253587.0,,,,,,,,
307246.0,253621.0,,,,,,,,
307251.0,253694.0,,,,,,,,
307257.0,253734.0,,,,,,,,
307261.0,253776.0,,,,,,,,
307266.0,253826.0,,,,,,,,
307271.0,253903.0,,,,,,,,
307276.0,253992.0,,,,,,,,
307282.0,254031.0,,,,,,,,
307287.0,254119.0,,,,,,,,
307292.0,254187.0,,,,,,,,
307296.0,254284.0,,,,,,,,
307302.0,254344.0,,,,,,,,
307307.0,254427.0,,,,,,,,
307312.0,254522.0,,,,,,,,
307317.0,254617.0,,,,,,,,
307322.0,254688.0,,,,,,,,
307327.0,254784.0,,,,,,,,
307332.0,254876.0,,,,,,,,
307337.0,254923.0,,,,,,,,
307342.0,255034.0,,,,,,,,
307347.0,255116.0,,,,,,,,
307352.0,255191.0,,,,,,,,
307357.0,255280.0,,,,,,,,
307362.0,255349.0,,,,,,,,
307367.0,255443.0,,,,,,,,
307372.0,255510.0,,,,,,,,
307377.0,255603.0,,,,,,,,
307382.0,255656.0,,,,,,,,
307387.0,255736.0,,,,,,,,
307392.0,255837.0,,,,,,,,
307397.0,255918.0,,,,,,,,
307402.0,255982.0,,,,,,,,
307407.0,256066.0,,,,,,,,
307412.0,256154.0,,,,,,,,
307417.0,256220.0,,,,,,,,
307422.0,256283.0,,,,,,,,
307427.0,256382.0,,,,,,,,
307432.0,256456.0,,,,,,,,
307437.0,256548.0,,,,,,,,
307442.0,256619.0,,,,,,,,
307447.0,256693.0,,,,,,,,
307452.0,256773.0,,,,,,,,
307457.0,256847.0,,,,,,,,
307462.0,256908.0,,,,,,,,
307467.0,256968.0,,,,,,,,
307472.0,257037.0,,,,,,,,
307477.0,257104.0,,,,,,,,
307482.0,257156.0,,,,,,,,
307487.0,257234.0,,,,,,,,
307492.0,257275.0,,,,,,,,
307497.0,257319.0,,,,,,,,
307502.0,257393.0,,,,,,,,
307507.0,257432.0,,,,,,,,
307512.0,257489.0,,,,,,,,
307517.0,257550.0,,,,,,,,
307522.0,257592.0,,,,,,,,
307527.0,257648.0,,,,,,,,
307532.0,257695.0,,,,,,,,
307537.0,257754.0,,,,,,,,
307542.0,257814.0,,,,,,,,
307547.0,257869.0,,,,,,,,
307552.0,257917.0,,,,,,,,
307557.0,257970.0,,,,,,,,
307562.0,258017.0,,,,,,,,
307567.0,258064.0,,,,,,,,
307572.0,258089.0,,,,,,,,
307577.0,258148.0,,,,,,,,
307582.0,258184.0,,,,,,,,
307587.0,258225.0,,,,,,,,
307592.0,258255.0,,,,,,,,
307597.0,258325.0,,,,,,,,
307602.0,258344.0,,,,,,,,
307608.0,258376.0,,,,,,,,
307613.0,258414.0,,,,,,,,
307618.0,258443.0,,,,,,,,
307622.0,258488.0,,,,,,,,
307627.0,258523.0,,,,,,,,
307633.0,258574.0,,,,,,,,
307638.0,258580.0,,,,,,,,
307643.0,258654.0,,,,,,,,
307647.0,258671.0,,,,,,,,
307653.0,258711.0,,,,,,,,
307658.0,258785.0,,,,,,,,
307663.0,258815.0,,,,,,,,
307668.0,258852.0,,,,,,,,
307673.0,258894.0,,,,,,,,
307678.0,258929.0,,,,,,,,
307683.0,258965.0,,,,,,,,
307688.0,259025.0,,,,,,,,
307693.0,259041.0,,,,,,,,
307698.0,259093.0,,,,,,,,
307703.0,259130.0,,,,,,,,
307708.0,259161.0,,,,,,,,
307713.0,259208.0,,,,,,,,
307718.0,259241.0,,,,,,,,
307723.0,259280.0,,,,,,,,
307728.0,259324.0,,,,,,,,
307733.0,259382.0,,,,,,,,
307738.0,259434.0,,,,,,,,
307743.0,259494.0,,,,,,,,
307748.0,259528.0,,,,,,,,
307753.0,259574.0,,,,,,,,
307758.0,259642.0,,,,,,,,
307763.0,259676.0,,,,,,,,
307768.0,259737.0,,,,,,,,
307773.0,259779.0,,,,,,,,
307778.0,259817.0,,,,,,,,
307783.0,259868.0,,,,,,,,
307788.0,259895.0,,,,,,,,
307793.0,259887.0,,,,,,,,
307798.0,259889.0,,,,,,,,
307803.0,259839.0,,,,,,,,
307808.0,259762.0,,,,,,,,
307813.0,259652.0,,,,,,,,
307818.0,259438.0,,,,,,,,
307823.0,259209.0,,,,,,,,
307828.0,258948.0,,,,,,,,
307833.0,258600.0,,,,,,,,
307838.0,258258.0,,,,,,,,
307843.0,257890.0,,,,,,,,
307848.0,257479.0,,,,,,,,
307853.0,257054.0,,,,,,,,
307858.0,256618.0,,,,,,,,
307863.0,256206.0,,,,,,,,
307868.0,255781.0,,,,,,,,
307873.0,255392.0,,,,,,,,
307878.0,254982.0,,,,,,,,
307883.0,254644.0,,,,,,,,
307888.0,254301.0,,,,,,,,
307893.0,253989.0,,,,,,,,
307898.0,253721.0,,,,,,,,
307903.0,253487.0,,,,,,,,
307908.0,253273.0,,,,,,,,
307913.0,253090.0,,,,,,,,
307919.0,252932.0,,,,,,,,
307923.0,252803.0,,,,,,,,
307928.0,252674.0,,,,,,,,
307933.0,252610.0,,,,,,,,
307939.0,252566.0,,,,,,,,
307944.0,252507.0,,,,,,,,
307948.0,252501.0,,,,,,,,
307953.0,252494.0,,,,,,,,
307958.0,252492.0,,,,,,,,
307964.0,252482.0,,,,,,,,
307969.0,252477.0,,,,,,,,
307974.0,252521.0,,,,,,,,
307978.0,252567.0,,,,,,,,
307984.0,252602.0,,,,,,,,
307989.0,252629.0,,,,,,,,
307994.0,252688.0,,,,,,,,
307999.0,252728.0,,,,,,,,
308004.0,252788.0,,,,,,,,
308009.0,252874.0,,,,,,,,
308014.0,252908.0,,,,,,,,
308019.0,252977.0,,,,,,,,
308024.0,253065.0,,,,,,,,
308029.0,253121.0,,,,,,,,
308034.0,253187.0,,,,,,,,
308039.0,253265.0,,,,,,,,
308044.0,253352.0,,,,,,,,
308049.0,253472.0,,,,,,,,
308054.0,253551.0,,,,,,,,
308059.0,253658.0,,,,,,,,
308064.0,253739.0,,,,,,,,
308069.0,253869.0,,,,,,,,
308074.0,253989.0,,,,,,,,
308079.0,254080.0,,,,,,,,
308084.0,254142.0,,,,,,,,
308089.0,254227.0,,,,,,,,
308094.0,254326.0,,,,,,,,
308099.0,254402.0,,,,,,,,
308104.0,254453.0,,,,,,,,
308109.0,254513.0,,,,,,,,
308114.0,254568.0,,,,,,,,
308119.0,254617.0,,,,,,,,
308124.0,254630.0,,,,,,,,
308129.0,254633.0,,,,,,,,
308134.0,254649.0,,,,,,,,
308139.0,254661.0,,,,,,,,
308144.0,254642.0,,,,,,,,
308149.0,254637.0,,,,,,,,
308154.0,254570.0,,,,,,,,
308159.0,254564.0,,,,,,,,
308164.0,254512.0,,,,,,,,
308169.0,254446.0,,,,,,,,
308174.0,254388.0,,,,,,,,
308179.0,254350.0,,,,,,,,
308184.0,254240.0,,,,,,,,
308189.0,254194.0,,,,,,,,
308194.0,254178.0,,,,,,,,
308199.0,254111.0,,,,,,,,
308204.0,254039.0,,,,,,,,
308209.0,254013.0,,,,,,,,
308214.0,253980.0,,,,,,,,
308219.0,253978.0,,,,,,,,
308224.0,253942.0,,,,,,,,
308229.0,253924.0,,,,,,,,
308234.0,253928.0,,,,,,,,
308239.0,253908.0,,,,,,,,
308244.0,253929.0,,,,,,,,
308249.0,253939.0,,,,,,,,
308254.0,253951.0,,,,,,,,
308259.0,253966.0,,,,,,,,
308264.0,254023.0,,,,,,,,
308270.0,254033.0,,,,,,,,
308274.0,254045.0,,,,,,,,
308279.0,254111.0,,,,,,,,
308284.0,254137.0,,,,,,,,
308290.0,254153.0,,,,,,,,
308295.0,254221.0,,,,,,,,
308300.0,254281.0,,,,,,,,
308304.0,254326.0,,,,,,,,
308309.0,254357.0,,,,,,,,
308315.0,254428.0,,,,,,,,
308320.0,254484.0,,,,,,,,
308325.0,254537.0,,,,,,,,
308330.0,254607.0,,,,,,,,
308335.0,254665.0,,,,,,,,
308340.0,254772.0,,,,,,,,
308345.0,254813.0,,,,,,,,
308350.0,254867.0,,,,,,,,
308355.0,254913.0,,,,,,,,
308360.0,255014.0,,,,,,,,
308365.0,255057.0,,,,,,,,
308370.0,255121.0,,,,,,,,
308375.0,255196.0,,,,,,,,
308380.0,255249.0,,,,,,,,
308385.0,255334.0,,,,,,,,
308390.0,255403.0,,,,,,,,
308395.0,255448.0,,,,,,,,
308400.0,255495.0,,,,,,,,
308405.0,255547.0,,,,,,,,
308410.0,255606.0,,,,,,,,
308415.0,255673.0,,,,,,,,
308420.0,255731.0,,,,,,,,
308425.0,255785.0,,,,,,,,
308430.0,255841.0,,,,,,,,
308435.0,255883.0,,,,,,,,
308440.0,255941.0,,,,,,,,
308445.0,256004.0,,,,,,,,
308450.0,256050.0,,,,,,,,
308455.0,256101.0,,,,,,,,
308460.0,256149.0,,,,,,,,
308465.0,256219.0,,,,,,,,
308470.0,256250.0,,,,,,,,
308475.0,256317.0,,,,,,,,
308480.0,256348.0,,,,,,,,
308485.0,256413.0,,,,,,,,
308490.0,256466.0,,,,,,,,
308495.0,256476.0,,,,,,,,
308500.0,256538.0,,,,,,,,
308505.0,256578.0,,,,,,,,
308510.0,256612.0,,,,,,,,
308515.0,256669.0,,,,,,,,
308520.0,256693.0,,,,,,,,
308525.0,256735.0,,,,,,,,
308530.0,256789.0,,,,,,,,
308535.0,256823.0,,,,,,,,
308540.0,256881.0,,,,,,,,
308545.0,256912.0,,,,,,,,
308550.0,256956.0,,,,,,,,
308555.0,256978.0,,,,,,,,
308560.0,256991.0,,,,,,,,
308565.0,257073.0,,,,,,,,
308570.0,257081.0,,,,,,,,
308575.0,257125.0,,,,,,,,
308580.0,257133.0,,,,,,,,
308585.0,257199.0,,,,,,,,
308590.0,257223.0,,,,,,,,
308595.0,257242.0,,,,,,,,
308600.0,257301.0,,,,,,,,
308605.0,257335.0,,,,,,,,
308610.0,257367.0,,,,,,,,
308615.0,257390.0,,,,,,,,
308620.0,257437.0,,,,,,,,
308625.0,257475.0,,,,,,,,
308631.0,257512.0,,,,,,,,
308636.0,257515.0,,,,,,,,
308641.0,257550.0,,,,,,,,
308646.0,257571.0,,,,,,,,
308650.0,257574.0,,,,,,,,
308656.0,257596.0,,,,,,,,
308661.0,257609.0,,,,,,,,
308666.0,257621.0,,,,,,,,
308671.0,257638.0,,,,,,,,
308676.0,257640.0,,,,,,,,
308681.0,257639.0,,,,,,,,
308686.0,257638.0,,,,,,,,
308691.0,257674.0,,,,,,,,
308696.0,257696.0,,,,,,,,
308701.0,257724.0,,,,,,,,
308706.0,257746.0,,,,,,,,
308711.0,257786.0,,,,,,,,
308716.0,257822.0,,,,,,,,
308721.0,257853.0,,,,,,,,
308726.0,257895.0,,,,,,,,
308731.0,257952.0,,,,,,,,
308736.0,258017.0,,,,,,,,
308741.0,258041.0,,,,,,,,
308746.0,258102.0,,,,,,,,
308751.0,258122.0,,,,,,,,
308756.0,258201.0,,,,,,,,
308761.0,258222.0,,,,,,,,
308766.0,258261.0,,,,,,,,
308771.0,258280.0,,,,,,,,
308776.0,258259.0,,,,,,,,
308781.0,258262.0,,,,,,,,
308786.0,258176.0,,,,,,,,
308791.0,258042.0,,,,,,,,
308796.0,257865.0,,,,,,,,
308801.0,257648.0,,,,,,,,
308806.0,257380.0,,,,,,,,
308811.0,257057.0,,,,,,,,
308816.0,256712.0,,,,,,,,
308821.0,256326.0,,,,,,,,
308826.0,255955.0,,,,,,,,
308831.0,255532.0,,,,,,,,
308836.0,255110.0,,,,,,,,
308841.0,254699.0,,,,,,,,
308846.0,254310.0,,,,,,,,
308851.0,253914.0,,,,,,,,
308856.0,253507.0,,,,,,,,
308861.0,253149.0,,,,,,,,
308866.0,252817.0,,,,,,,,
308871.0,252519.0,,,,,,,,
308876.0,252255.0,,,,,,,,
308881.0,251988.0,,,,,,,,
308886.0,251792.0,,,,,,,,
308891.0,251578.0,,,,,,,,
308896.0,251420.0,,,,,,,,
308901.0,251291.0,,,,,,,,
308906.0,251164.0,,,,,,,,
308911.0,251061.0,,,,,,,,
308916.0,250981.0,,,,,,,,
308921.0,250932.0,,,,,,,,
308926.0,250891.0,,,,,,,,
308931.0,250867.0,,,,,,,,
308936.0,250843.0,,,,,,,,
308942.0,250840.0,,,,,,,,
308946.0,250858.0,,,,,,,,
308951.0,250877.0,,,,,,,,
308956.0,250897.0,,,,,,,,
308961.0,250928.0,,,,,,,,
308967.0,250953.0,,,,,,,,
308972.0,251010.0,,,,,,,,
308976.0,251062.0,,,,,,,,
308981.0,251128.0,,,,,,,,
308987.0,251185.0,,,,,,,,
308992.0,251222.0,,,,,,,,
308997.0,251299.0,,,,,,,,
309002.0,251357.0,,,,,,,,
309007.0,251422.0,,,,,,,,
309012.0,251470.0,,,,,,,,
309017.0,251532.0,,,,,,,,
309022.0,251590.0,,,,,,,,
309027.0,251662.0,,,,,,,,
309032.0,251730.0,,,,,,,,
309037.0,251803.0,,,,,,,,
309042.0,251889.0,,,,,,,,
309047.0,251981.0,,,,,,,,
309052.0,252086.0,,,,,,,,
309057.0,252182.0,,,,,,,,
309062.0,252280.0,,,,,,,,
309067.0,252375.0,,,,,,,,
309072.0,252492.0,,,,,,,,
309077.0,252587.0,,,,,,,,
309082.0,252695.0,,,,,,,,
309087.0,252771.0,,,,,,,,
309092.0,252857.0,,,,,,,,
309097.0,252939.0,,,,,,,,
309102.0,252962.0,,,,,,,,
309107.0,253038.0,,,,,,,,
309112.0,253098.0,,,,,,,,
309117.0,253123.0,,,,,,,,
309122.0,253151.0,,,,,,,,
309127.0,253152.0,,,,,,,,
309132.0,253148.0,,,,,,,,
309137.0,253132.0,,,,,,,,
309142.0,253108.0,,,,,,,,
309147.0,253090.0,,,,,,,,
309152.0,253064.0,,,,,,,,
309157.0,253008.0,,,,,,,,
309162.0,253004.0,,,,,,,,
309167.0,252939.0,,,,,,,,
309172.0,252906.0,,,,,,,,
309177.0,252896.0,,,,,,,,
309182.0,252849.0,,,,,,,,
309187.0,252837.0,,,,,,,,
309192.0,252814.0,,,,,,,,
309197.0,252807.0,,,,,,,,
309202.0,252785.0,,,,,,,,
309207.0,252765.0,,,,,,,,
309212.0,252758.0,,,,,,,,
309217.0,252747.0,,,,,,,,
309222.0,252771.0,,,,,,,,
309227.0,252763.0,,,,,,,,
309232.0,252769.0,,,,,,,,
309237.0,252791.0,,,,,,,,
309242.0,252808.0,,,,,,,,
309247.0,252835.0,,,,,,,,
309252.0,252845.0,,,,,,,,
309257.0,252920.0,,,,,,,,
309262.0,252933.0,,,,,,,,
309267.0,252958.0,,,,,,,,
309272.0,253017.0,,,,,,,,
309277.0,253050.0,,,,,,,,
309282.0,253082.0,,,,,,,,
309287.0,253157.0,,,,,,,,
309292.0,253203.0,,,,,,,,
309297.0,253257.0,,,,,,,,
309303.0,253329.0,,,,,,,,
309308.0,253343.0,,,,,,,,
309312.0,253405.0,,,,,,,,
309317.0,253439.0,,,,,,,,
309323.0,253494.0,,,,,,,,
309328.0,253557.0,,,,,,,,
309333.0,253630.0,,,,,,,,
309338.0,253689.0,,,,,,,,
309342.0,253768.0,,,,,,,,
309348.0,253846.0,,,,,,,,
309353.0,253890.0,,,,,,,,
309358.0,253973.0,,,,,,,,
309363.0,254024.0,,,,,,,,
309368.0,254116.0,,,,,,,,
309373.0,254186.0,,,,,,,,
309378.0,254243.0,,,,,,,,
309383.0,254320.0,,,,,,,,
309388.0,254416.0,,,,,,,,
309393.0,254483.0,,,,,,,,
309398.0,254545.0,,,,,,,,
309403.0,254609.0,,,,,,,,
309408.0,254658.0,,,,,,,,
309413.0,254712.0,,,,,,,,
309418.0,254785.0,,,,,,,,
309423.0,254840.0,,,,,,,,
309428.0,254877.0,,,,,,,,
309433.0,254933.0,,,,,,,,
309438.0,254992.0,,,,,,,,
309443.0,255056.0,,,,,,,,
309448.0,255107.0,,,,,,,,
309453.0,255147.0,,,,,,,,
309458.0,255230.0,,,,,,,,
309463.0,255276.0,,,,,,,,
309468.0,255358.0,,,,,,,,
309473.0,255422.0,,,,,,,,
309478.0,255485.0,,,,,,,,
309483.0,255549.0,,,,,,,,
309488.0,255637.0,,,,,,,,
309493.0,255704.0,,,,,,,,
309498.0,255748.0,,,,,,,,
309503.0,255843.0,,,,,,,,
309508.0,255889.0,,,,,,,,
309513.0,255971.0,,,,,,,,
309518.0,256037.0,,,,,,,,
309523.0,256128.0,,,,,,,,
309528.0,256181.0,,,,,,,,
309533.0,256261.0,,,,,,,,
309538.0,256329.0,,,,,,,,
309543.0,256361.0,,,,,,,,
309548.0,256433.0,,,,,,,,
309553.0,256469.0,,,,,,,,
309558.0,256544.0,,,,,,,,
309563.0,256605.0,,,,,,,,
309568.0,256667.0,,,,,,,,
309573.0,256728.0,,,,,,,,
309578.0,256767.0,,,,,,,,
309583.0,256824.0,,,,,,,,
309588.0,256891.0,,,,,,,,
309593.0,256931.0,,,,,,,,
309598.0,256979.0,,,,,,,,
309603.0,257057.0,,,,,,,,
309608.0,257100.0,,,,,,,,
309614.0,257137.0,,,,,,,,
309618.0,257205.0,,,,,,,,
309623.0,257232.0,,,,,,,,
309628.0,257297.0,,,,,,,,
309634.0,257359.0,,,,,,,,
309639.0,257423.0,,,,,,,,
309644.0,257464.0,,,,,,,,
309648.0,257519.0,,,,,,,,
309653.0,257563.0,,,,,,,,
309659.0,257634.0,,,,,,,,
309664.0,257711.0,,,,,,,,
309669.0,257779.0,,,,,,,,
309674.0,257824.0,,,,,,,,
309679.0,257897.0,,,,,,,,
309684.0,257959.0,,,,,,,,
309689.0,258074.0,,,,,,,,
309694.0,258107.0,,,,,,,,
309699.0,258172.0,,,,,,,,
309704.0,258261.0,,,,,,,,
309709.0,258317.0,,,,,,,,
309714.0,258370.0,,,,,,,,
309719.0,258434.0,,,,,,,,
309724.0,258504.0,,,,,,,,
309729.0,258557.0,,,,,,,,
309734.0,258610.0,,,,,,,,
309739.0,258665.0,,,,,,,,
309744.0,258735.0,,,,,,,,
309749.0,258805.0,,,,,,,,
309754.0,258873.0,,,,,,,,
309759.0,258923.0,,,,,,,,
309764.0,258986.0,,,,,,,,
309769.0,259054.0,,,,,,,,
309774.0,259108.0,,,,,,,,
309779.0,259150.0,,,,,,,,
309784.0,259229.0,,,,,,,,
309789.0,259275.0,,,,,,,,
309794.0,259298.0,,,,,,,,
309799.0,259352.0,,,,,,,,
309804.0,259355.0,,,,,,,,
309809.0,259339.0,,,,,,,,
309814.0,259298.0,,,,,,,,
309819.0,259189.0,,,,,,,,
309824.0,259052.0,,,,,,,,
309829.0,258814.0,,,,,,,,
309834.0,258564.0,,,,,,,,
309839.0,258282.0,,,,,,,,
309844.0,257915.0,,,,,,,,
309849.0,257518.0,,,,,,,,
309854.0,257137.0,,,,,,,,
309859.0,256701.0,,,,,,,,
309864.0,256244.0,,,,,,,,
309869.0,255793.0,,,,,,,,
309874.0,255383.0,,,,,,,,
309879.0,254943.0,,,,,,,,
309884.0,254506.0,,,,,,,,
309889.0,254134.0,,,,,,,,
309894.0,253767.0,,,,,,,,
309899.0,253462.0,,,,,,,,
309904.0,253145.0,,,,,,,,
309909.0,252859.0,,,,,,,,
309914.0,252650.0,,,,,,,,
309919.0,252458.0,,,,,,,,
309924.0,252293.0,,,,,,,,
309929.0,252149.0,,,,,,,,
309934.0,252055.0,,,,,,,,
309939.0,251965.0,,,,,,,,
309944.0,251882.0,,,,,,,,
309949.0,251807.0,,,,,,,,
309954.0,251811.0,,,,,,,,
309959.0,251791.0,,,,,,,,
309965.0,251768.0,,,,,,,,
309970.0,251785.0,,,,,,,,
309974.0,251822.0,,,,,,,,
309979.0,251825.0,,,,,,,,
309985.0,251840.0,,,,,,,,
309990.0,251876.0,,,,,,,,
309994.0,251920.0,,,,,,,,
309999.0,251967.0,,,,,,,,
310005.0,251994.0,,,,,,,,
310010.0,252039.0,,,,,,,,
310015.0,252077.0,,,,,,,,
310020.0,252153.0,,,,,,,,
310025.0,252196.0,,,,,,,,
310030.0,252267.0,,,,,,,,
310035.0,252355.0,,,,,,,,
310040.0,252389.0,,,,,,,,
310045.0,252485.0,,,,,,,,
310050.0,252561.0,,,,,,,,
310055.0,252660.0,,,,,,,,
310060.0,252731.0,,,,,,,,
310065.0,252838.0,,,,,,,,
310070.0,252970.0,,,,,,,,
310075.0,253077.0,,,,,,,,
310080.0,253202.0,,,,,,,,
310085.0,253343.0,,,,,,,,
310090.0,253474.0,,,,,,,,
310095.0,253625.0,,,,,,,,
310100.0,253743.0,,,,,,,,
310105.0,253880.0,,,,,,,,
310110.0,253994.0,,,,,,,,
310115.0,254106.0,,,,,,,,
310120.0,254188.0,,,,,,,,
310125.0,254250.0,,,,,,,,
310130.0,254338.0,,,,,,,,
310135.0,254403.0,,,,,,,,
310140.0,254438.0,,,,,,,,
310145.0,254491.0,,,,,,,,
310150.0,254505.0,,,,,,,,
310155.0,254520.0,,,,,,,,
310160.0,254510.0,,,,,,,,
310165.0,254481.0,,,,,,,,
310170.0,254475.0,,,,,,,,
310175.0,254468.0,,,,,,,,
310180.0,254446.0,,,,,,,,
310185.0,254397.0,,,,,,,,
310190.0,254369.0,,,,,,,,
310195.0,254343.0,,,,,,,,
310200.0,254327.0,,,,,,,,
310205.0,254282.0,,,,,,,,
310210.0,254249.0,,,,,,,,
310215.0,254217.0,,,,,,,,
310220.0,254204.0,,,,,,,,
310225.0,254190.0,,,,,,,,
310230.0,254200.0,,,,,,,,
310235.0,254180.0,,,,,,,,
310240.0,254192.0,,,,,,,,
310245.0,254196.0,,,,,,,,
310250.0,254208.0,,,,,,,,
310255.0,254234.0,,,,,,,,
310260.0,254246.0,,,,,,,,
310265.0,254288.0,,,,,,,,
310270.0,254316.0,,,,,,,,
310275.0,254351.0,,,,,,,,
310280.0,254392.0,,,,,,,,
310285.0,254423.0,,,,,,,,
310290.0,254494.0,,,,,,,,
310295.0,254542.0,,,,,,,,
310300.0,254600.0,,,,,,,,
310305.0,254640.0,,,,,,,,
310310.0,254730.0,,,,,,,,
310315.0,254762.0,,,,,,,,
310321.0,254808.0,,,,,,,,
310326.0,254912.0,,,,,,,,
310330.0,254976.0,,,,,,,,
310335.0,255032.0,,,,,,,,
310341.0,255101.0,,,,,,,,
310346.0,255188.0,,,,,,,,
310351.0,255271.0,,,,,,,,
310356.0,255344.0,,,,,,,,
310361.0,255444.0,,,,,,,,
310366.0,255487.0,,,,,,,,
310371.0,255595.0,,,,,,,,
310376.0,255654.0,,,,,,,,
310381.0,255764.0,,,,,,,,
310386.0,255833.0,,,,,,,,
310391.0,255932.0,,,,,,,,
310396.0,256026.0,,,,,,,,
310401.0,256091.0,,,,,,,,
310406.0,256165.0,,,,,,,,
310411.0,256251.0,,,,,,,,
310416.0,256347.0,,,,,,,,
310421.0,256425.0,,,,,,,,
310426.0,256525.0,,,,,,,,
310431.0,256600.0,,,,,,,,
310436.0,256691.0,,,,,,,,
310441.0,256778.0,,,,,,,,
310446.0,256875.0,,,,,,,,
310451.0,256960.0,,,,,,,,
310456.0,257024.0,,,,,,,,
310461.0,257129.0,,,,,,,,
310466.0,257231.0,,,,,,,,
310471.0,257309.0,,,,,,,,
310476.0,257388.0,,,,,,,,
310481.0,257442.0,,,,,,,,
310486.0,257543.0,,,,,,,,
310491.0,257596.0,,,,,,,,
310496.0,257700.0,,,,,,,,
310501.0,257760.0,,,,,,,,
310506.0,257838.0,,,,,,,,
310511.0,257904.0,,,,,,,,
310516.0,257975.0,,,,,,,,
310521.0,258034.0,,,,,,,,
310526.0,258100.0,,,,,,,,
310531.0,258167.0,,,,,,,,
310536.0,258206.0,,,,,,,,
310541.0,258269.0,,,,,,,,
310546.0,258366.0,,,,,,,,
310551.0,258398.0,,,,,,,,
310556.0,258463.0,,,,,,,,
310561.0,258510.0,,,,,,,,
310566.0,258580.0,,,,,,,,
310571.0,258633.0,,,,,,,,
310576.0,258674.0,,,,,,,,
310581.0,258739.0,,,,,,,,
310586.0,258783.0,,,,,,,,
310591.0,258810.0,,,,,,,,
310596.0,258863.0,,,,,,,,
310601.0,258925.0,,,,,,,,
310606.0,258957.0,,,,,,,,
310611.0,258978.0,,,,,,,,
310616.0,259043.0,,,,,,,,
310621.0,259083.0,,,,,,,,
310626.0,259115.0,,,,,,,,
310631.0,259143.0,,,,,,,,
310636.0,259228.0,,,,,,,,
310641.0,259242.0,,,,,,,,
310646.0,259280.0,,,,,,,,
310651.0,259308.0,,,,,,,,
310657.0,259344.0,,,,,,,,
310661.0,259389.0,,,,,,,,
310666.0,259429.0,,,,,,,,
310671.0,259475.0,,,,,,,,
310677.0,259505.0,,,,,,,,
310682.0,259571.0,,,,,,,,
310687.0,259620.0,,,,,,,,
310691.0,259640.0,,,,,,,,
310697.0,259689.0,,,,,,,,
310702.0,259712.0,,,,,,,,
310707.0,259775.0,,,,,,,,
310712.0,259803.0,,,,,,,,
310717.0,259881.0,,,,,,,,
310722.0,259913.0,,,,,,,,
310727.0,259965.0,,,,,,,,
310732.0,260006.0,,,,,,,,
310737.0,260054.0,,,,,,,,
310742.0,260086.0,,,,,,,,
310747.0,260108.0,,,,,,,,
310752.0,260165.0,,,,,,,,
310757.0,260192.0,,,,,,,,
310762.0,260243.0,,,,,,,,
310767.0,260296.0,,,,,,,,
310772.0,260352.0,,,,,,,,
310777.0,260372.0,,,,,,,,
310782.0,260425.0,,,,,,,,
310787.0,260470.0,,,,,,,,
310792.0,260485.0,,,,,,,,
310797.0,260547.0,,,,,,,,
310802.0,260551.0,,,,,,,,
310807.0,260533.0,,,,,,,,
310812.0,260472.0,,,,,,,,
310817.0,260391.0,,,,,,,,
310822.0,260218.0,,,,,,,,
310827.0,260032.0,,,,,,,,
310832.0,259787.0,,,,,,,,
310837.0,259500.0,,,,,,,,
310842.0,259174.0,,,,,,,,
310847.0,258811.0,,,,,,,,
310852.0,258414.0,,,,,,,,
310857.0,258033.0,,,,,,,,
310862.0,257574.0,,,,,,,,
310867.0,257140.0,,,,,,,,
310872.0,256721.0,,,,,,,,
310877.0,256327.0,,,,,,,,
310882.0,255919.0,,,,,,,,
310887.0,255511.0,,,,,,,,
310892.0,255154.0,,,,,,,,
310897.0,254825.0,,,,,,,,
310902.0,254507.0,,,,,,,,
310907.0,254217.0,,,,,,,,
310912.0,253985.0,,,,,,,,
310917.0,253742.0,,,,,,,,
310922.0,253545.0,,,,,,,,
310927.0,253368.0,,,,,,,,
310932.0,253225.0,,,,,,,,
310937.0,253134.0,,,,,,,,
310942.0,253026.0,,,,,,,,
310947.0,252967.0,,,,,,,,
310952.0,252885.0,,,,,,,,
310957.0,252872.0,,,,,,,,
310962.0,252825.0,,,,,,,,
310967.0,252817.0,,,,,,,,
310972.0,252810.0,,,,,,,,
310977.0,252802.0,,,,,,,,
310983.0,252809.0,,,,,,,,
310987.0,252829.0,,,,,,,,
310992.0,252848.0,,,,,,,,
310997.0,252866.0,,,,,,,,
311003.0,252899.0,,,,,,,,
311008.0,252945.0,,,,,,,,
311012.0,252995.0,,,,,,,,
311017.0,253040.0,,,,,,,,
311023.0,253089.0,,,,,,,,
311028.0,253136.0,,,,,,,,
311033.0,253202.0,,,,,,,,
311038.0,253271.0,,,,,,,,
311043.0,253339.0,,,,,,,,
311048.0,253414.0,,,,,,,,
311053.0,253535.0,,,,,,,,
311058.0,253608.0,,,,,,,,
311063.0,253701.0,,,,,,,,
311068.0,253796.0,,,,,,,,
311073.0,253905.0,,,,,,,,
311078.0,254013.0,,,,,,,,
311083.0,254088.0,,,,,,,,
311088.0,254167.0,,,,,,,,
311093.0,254275.0,,,,,,,,
311098.0,254323.0,,,,,,,,
311103.0,254418.0,,,,,,,,
311108.0,254472.0,,,,,,,,
311113.0,254549.0,,,,,,,,
311118.0,254561.0,,,,,,,,
311123.0,254605.0,,,,,,,,
311128.0,254621.0,,,,,,,,
311133.0,254613.0,,,,,,,,
311138.0,254622.0,,,,,,,,
311143.0,254611.0,,,,,,,,
311148.0,254556.0,,,,,,,,
311153.0,254521.0,,,,,,,,
311158.0,254470.0,,,,,,,,
311163.0,254428.0,,,,,,,,
311168.0,254383.0,,,,,,,,
311173.0,254309.0,,,,,,,,
311178.0,254224.0,,,,,,,,
311183.0,254146.0,,,,,,,,
311188.0,254068.0,,,,,,,,
311193.0,254011.0,,,,,,,,
311198.0,253930.0,,,,,,,,
311203.0,253880.0,,,,,,,,
311208.0,253790.0,,,,,,,,
311213.0,253720.0,,,,,,,,
311218.0,253662.0,,,,,,,,
311223.0,253631.0,,,,,,,,
311228.0,253565.0,,,,,,,,
311233.0,253529.0,,,,,,,,
311238.0,253511.0,,,,,,,,
311243.0,253475.0,,,,,,,,
311248.0,253478.0,,,,,,,,
311253.0,253454.0,,,,,,,,
311258.0,253444.0,,,,,,,,
311263.0,253458.0,,,,,,,,
311268.0,253485.0,,,,,,,,
311273.0,253511.0,,,,,,,,
311278.0,253523.0,,,,,,,,
311283.0,253553.0,,,,,,,,
311288.0,253576.0,,,,,,,,
311293.0,253590.0,,,,,,,,
311298.0,253652.0,,,,,,,,
311303.0,253699.0,,,,,,,,
311308.0,253725.0,,,,,,,,
311313.0,253766.0,,,,,,,,
311318.0,253829.0,,,,,,,,
311324.0,253870.0,,,,,,,,
311328.0,253931.0,,,,,,,,
311333.0,253951.0,,,,,,,,
311338.0,254017.0,,,,,,,,
311344.0,254073.0,,,,,,,,
311349.0,254114.0,,,,,,,,
311353.0,254184.0,,,,,,,,
311358.0,254235.0,,,,,,,,
311364.0,254298.0,,,,,,,,
311369.0,254366.0,,,,,,,,
311374.0,254392.0,,,,,,,,
311378.0,254449.0,,,,,,,,
311384.0,254517.0,,,,,,,,
311389.0,254557.0,,,,,,,,
311394.0,254629.0,,,,,,,,
311399.0,254656.0,,,,,,,,
311404.0,254720.0,,,,,,,,
311409.0,254765.0,,,,,,,,
311414.0,254829.0,,,,,,,,
311419.0,254870.0,,,,,,,,
311424.0,254917.0,,,,,,,,
311429.0,254963.0,,,,,,,,
311434.0,255018.0,,,,,,,,
311439.0,255067.0,,,,,,,,
311444.0,255113.0,,,,,,,,
311449.0,255152.0,,,,,,,,
311454.0,255158.0,,,,,,,,
311459.0,255206.0,,,,,,,,
311464.0,255255.0,,,,,,,,
311469.0,255314.0,,,,,,,,
311474.0,255327.0,,,,,,,,
311479.0,255374.0,,,,,,,,
311484.0,255404.0,,,,,,,,
311489.0,255441.0,,,,,,,,
311494.0,255471.0,,,,,,,,
311499.0,255515.0,,,,,,,,
311504.0,255542.0,,,,,,,,
311509.0,255575.0,,,,,,,,
311514.0,255642.0,,,,,,,,
311519.0,255698.0,,,,,,,,
311524.0,255744.0,,,,,,,,
311529.0,255802.0,,,,,,,,
311534.0,255854.0,,,,,,,,
311539.0,255909.0,,,,,,,,
311544.0,255927.0,,,,,,,,
311549.0,256000.0,,,,,,,,
311554.0,256012.0,,,,,,,,
311559.0,256080.0,,,,,,,,
311564.0,256085.0,,,,,,,,
311569.0,256133.0,,,,,,,,
311574.0,256150.0,,,,,,,,
311579.0,256179.0,,,,,,,,
311584.0,256213.0,,,,,,,,
311589.0,256222.0,,,,,,,,
311594.0,256236.0,,,,,,,,
311599.0,256255.0,,,,,,,,
311604.0,256283.0,,,,,,,,
311609.0,256318.0,,,,,,,,
311614.0,256345.0,,,,,,,,
311619.0,256351.0,,,,,,,,
311624.0,256406.0,,,,,,,,
311629.0,256422.0,,,,,,,,
311634.0,256464.0,,,,,,,,
311639.0,256503.0,,,,,,,,
311644.0,256528.0,,,,,,,,
311649.0,256586.0,,,,,,,,
311654.0,256621.0,,,,,,,,
311660.0,256663.0,,,,,,,,
311664.0,256702.0,,,,,,,,
311669.0,256734.0,,,,,,,,
311674.0,256776.0,,,,,,,,
311680.0,256803.0,,,,,,,,
311685.0,256835.0,,,,,,,,
311690.0,256833.0,,,,,,,,
311694.0,256862.0,,,,,,,,
311700.0,256822.0,,,,,,,,
311705.0,256758.0,,,,,,,,
311710.0,256647.0,,,,,,,,
311715.0,256488.0,,,,,,,,
311720.0,256277.0,,,,,,,,
311725.0,256013.0,,,,,,,,
311730.0,255715.0,,,,,,,,
311735.0,255392.0,,,,,,,,
311740.0,255034.0,,,,,,,,
311745.0,254645.0,,,,,,,,
311750.0,254246.0,,,,,,,,
311755.0,253863.0,,,,,,,,
311760.0,253428.0,,,,,,,,
311765.0,253028.0,,,,,,,,
311770.0,252618.0,,,,,,,,
311775.0,252247.0,,,,,,,,
311780.0,251904.0,,,,,,,,
311785.0,251569.0,,,,,,,,
311790.0,251267.0,,,,,,,,
311795.0,250975.0,,,,,,,,
311800.0,250738.0,,,,,,,,
311805.0,250513.0,,,,,,,,
311810.0,250319.0,,,,,,,,
311815.0,250191.0,,,,,,,,
311820.0,250024.0,,,,,,,,
311825.0,249907.0,,,,,,,,
311830.0,249813.0,,,,,,,,
311835.0,249731.0,,,,,,,,
311840.0,249686.0,,,,,,,,
311845.0,249635.0,,,,,,,,
311850.0,249653.0,,,,,,,,
311855.0,249625.0,,,,,,,,
311860.0,249632.0,,,,,,,,
311865.0,249635.0,,,,,,,,
311870.0,249616.0,,,,,,,,
311875.0,249671.0,,,,,,,,
311880.0,249718.0,,,,,,,,
311885.0,249742.0,,,,,,,,
311890.0,249785.0,,,,,,,,
311895.0,249853.0,,,,,,,,
311900.0,249904.0,,,,,,,,
311905.0,249948.0,,,,,,,,
311910.0,250008.0,,,,,,,,
311915.0,250095.0,,,,,,,,
311920.0,250172.0,,,,,,,,
311925.0,250223.0,,,,,,,,
311930.0,250288.0,,,,,,,,
311935.0,250373.0,,,,,,,,
311940.0,250432.0,,,,,,,,
311945.0,250527.0,,,,,,,,
311950.0,250642.0,,,,,,,,
311955.0,250733.0,,,,,,,,
311960.0,250808.0,,,,,,,,
311965.0,250917.0,,,,,,,,
311970.0,251036.0,,,,,,,,
311975.0,251133.0,,,,,,,,
311980.0,251246.0,,,,,,,,
311985.0,251356.0,,,,,,,,
311990.0,251448.0,,,,,,,,
311995.0,251547.0,,,,,,,,
312000.0,251641.0,,,,,,,,
312005.0,251746.0,,,,,,,,
312011.0,251839.0,,,,,,,,
312015.0,251926.0,,,,,,,,
312020.0,251957.0,,,,,,,,
312026.0,252040.0,,,,,,,,
312031.0,252063.0,,,,,,,,
312035.0,252126.0,,,,,,,,
312040.0,252143.0,,,,,,,,
312046.0,252156.0,,,,,,,,
312051.0,252153.0,,,,,,,,
312056.0,252196.0,,,,,,,,
312061.0,252183.0,,,,,,,,
312066.0,252154.0,,,,,,,,
312071.0,252144.0,,,,,,,,
312076.0,252115.0,,,,,,,,
312081.0,252096.0,,,,,,,,
312086.0,252047.0,,,,,,,,
312091.0,252005.0,,,,,,,,
312096.0,251976.0,,,,,,,,
312101.0,251926.0,,,,,,,,
312106.0,251868.0,,,,,,,,
312111.0,251837.0,,,,,,,,
312116.0,251821.0,,,,,,,,
312121.0,251774.0,,,,,,,,
312126.0,251750.0,,,,,,,,
312131.0,251737.0,,,,,,,,
312136.0,251740.0,,,,,,,,
312141.0,251759.0,,,,,,,,
312146.0,251756.0,,,,,,,,
312151.0,251765.0,,,,,,,,
312156.0,251782.0,,,,,,,,
312161.0,251832.0,,,,,,,,
312166.0,251877.0,,,,,,,,
312171.0,251901.0,,,,,,,,
312176.0,251964.0,,,,,,,,
312181.0,251993.0,,,,,,,,
312186.0,252074.0,,,,,,,,
312191.0,252147.0,,,,,,,,
312196.0,252196.0,,,,,,,,
312201.0,252252.0,,,,,,,,
312206.0,252334.0,,,,,,,,
312211.0,252404.0,,,,,,,,
312216.0,252485.0,,,,,,,,
312221.0,252546.0,,,,,,,,
312226.0,252629.0,,,,,,,,
312231.0,252725.0,,,,,,,,
312236.0,252800.0,,,,,,,,
312241.0,252877.0,,,,,,,,
312246.0,252970.0,,,,,,,,
312251.0,253049.0,,,,,,,,
312256.0,253141.0,,,,,,,,
312261.0,253230.0,,,,,,,,
312266.0,253335.0,,,,,,,,
312271.0,253417.0,,,,,,,,
312276.0,253499.0,,,,,,,,
312281.0,253633.0,,,,,,,,
312286.0,253711.0,,,,,,,,
312291.0,253779.0,,,,,,,,
312296.0,253887.0,,,,,,,,
312301.0,253971.0,,,,,,,,
312306.0,254077.0,,,,,,,,
312311.0,254168.0,,,,,,,,
312316.0,254253.0,,,,,,,,
312321.0,254385.0,,,,,,,,
312326.0,254461.0,,,,,,,,
312332.0,254575.0,,,,,,,,
312336.0,254641.0,,,,,,,,
312341.0,254761.0,,,,,,,,
312347.0,254869.0,,,,,,,,
312352.0,254942.0,,,,,,,,
312356.0,255012.0,,,,,,,,
312362.0,255090.0,,,,,,,,
312367.0,255140.0,,,,,,,,
312372.0,255212.0,,,,,,,,
312376.0,255287.0,,,,,,,,
312382.0,255336.0,,,,,,,,
312387.0,255428.0,,,,,,,,
312392.0,255444.0,,,,,,,,
312397.0,255513.0,,,,,,,,
312402.0,255524.0,,,,,,,,
312407.0,255591.0,,,,,,,,
312412.0,255632.0,,,,,,,,
312417.0,255659.0,,,,,,,,
312422.0,255684.0,,,,,,,,
312427.0,255694.0,,,,,,,,
312432.0,255758.0,,,,,,,,
312437.0,255760.0,,,,,,,,
312442.0,255793.0,,,,,,,,
312447.0,255839.0,,,,,,,,
312452.0,255877.0,,,,,,,,
312457.0,255901.0,,,,,,,,
312462.0,255944.0,,,,,,,,
312467.0,255965.0,,,,,,,,
312472.0,255999.0,,,,,,,,
312477.0,256014.0,,,,,,,,
312482.0,256059.0,,,,,,,,
312487.0,256096.0,,,,,,,,
312492.0,256129.0,,,,,,,,
312497.0,256164.0,,,,,,,,
312502.0,256182.0,,,,,,,,
312507.0,256245.0,,,,,,,,
312512.0,256246.0,,,,,,,,
312517.0,256268.0,,,,,,,,
312522.0,256306.0,,,,,,,,
312527.0,256335.0,,,,,,,,
312532.0,256348.0,,,,,,,,
312537.0,256350.0,,,,,,,,
312542.0,256373.0,,,,,,,,
312547.0,256390.0,,,,,,,,
312552.0,256419.0,,,,,,,,
312557.0,256438.0,,,,,,,,
312562.0,256458.0,,,,,,,,
312567.0,256488.0,,,,,,,,
312572.0,256502.0,,,,,,,,
312577.0,256535.0,,,,,,,,
312582.0,256570.0,,,,,,,,
312587.0,256600.0,,,,,,,,
312592.0,256653.0,,,,,,,,
312597.0,256678.0,,,,,,,,
312602.0,256724.0,,,,,,,,
312607.0,256753.0,,,,,,,,
312612.0,256774.0,,,,,,,,
312617.0,256829.0,,,,,,,,
312622.0,256895.0,,,,,,,,
312627.0,256929.0,,,,,,,,
312632.0,256965.0,,,,,,,,
312637.0,257006.0,,,,,,,,
312642.0,257005.0,,,,,,,,
312647.0,256977.0,,,,,,,,
312652.0,256914.0,,,,,,,,
312657.0,256804.0,,,,,,,,
312662.0,256656.0,,,,,,,,
312667.0,256444.0,,,,,,,,
312672.0,256204.0,,,,,,,,
312677.0,255905.0,,,,,,,,
312682.0,255554.0,,,,,,,,
312688.0,255140.0,,,,,,,,
312692.0,254742.0,,,,,,,,
312697.0,254309.0,,,,,,,,
312703.0,253869.0,,,,,,,,
312708.0,253437.0,,,,,,,,
312713.0,252983.0,,,,,,,,
312717.0,252549.0,,,,,,,,
312723.0,252152.0,,,,,,,,
312728.0,251788.0,,,,,,,,
312733.0,251432.0,,,,,,,,
312738.0,251105.0,,,,,,,,
312743.0,250818.0,,,,,,,,
312748.0,250595.0,,,,,,,,
312753.0,250349.0,,,,,,,,
312758.0,250150.0,,,,,,,,
312763.0,249992.0,,,,,,,,
312768.0,249855.0,,,,,,,,
312773.0,249740.0,,,,,,,,
312778.0,249670.0,,,,,,,,
312783.0,249614.0,,,,,,,,
312788.0,249559.0,,,,,,,,
312793.0,249527.0,,,,,,,,
312798.0,249509.0,,,,,,,,
312803.0,249516.0,,,,,,,,
312808.0,249540.0,,,,,,,,
312813.0,249558.0,,,,,,,,
312818.0,249577.0,,,,,,,,
312823.0,249633.0,,,,,,,,
312828.0,249668.0,,,,,,,,
312833.0,249705.0,,,,,,,,
312838.0,249783.0,,,,,,,,
312843.0,249833.0,,,,,,,,
312848.0,249911.0,,,,,,,,
312853.0,249946.0,,,,,,,,
312858.0,250043.0,,,,,,,,
312863.0,250123.0,,,,,,,,
312868.0,250162.0,,,,,,,,
312873.0,250235.0,,,,,,,,
312878.0,250315.0,,,,,,,,
312883.0,250388.0,,,,,,,,
312888.0,250463.0,,,,,,,,
312893.0,250541.0,,,,,,,,
312898.0,250617.0,,,,,,,,
312903.0,250707.0,,,,,,,,
312908.0,250835.0,,,,,,,,
312913.0,250920.0,,,,,,,,
312918.0,251018.0,,,,,,,,
312923.0,251161.0,,,,,,,,
312928.0,251275.0,,,,,,,,
312933.0,251406.0,,,,,,,,
312938.0,251529.0,,,,,,,,
312943.0,251648.0,,,,,,,,
312948.0,251769.0,,,,,,,,
312953.0,251898.0,,,,,,,,
312958.0,251974.0,,,,,,,,
312963.0,252088.0,,,,,,,,
312968.0,252164.0,,,,,,,,
312973.0,252222.0,,,,,,,,
312978.0,252278.0,,,,,,,,
312983.0,252330.0,,,,,,,,
312988.0,252339.0,,,,,,,,
312993.0,252356.0,,,,,,,,
312998.0,252364.0,,,,,,,,
313003.0,252335.0,,,,,,,,
313008.0,252320.0,,,,,,,,
313013.0,252294.0,,,,,,,,
313019.0,252261.0,,,,,,,,
313024.0,252226.0,,,,,,,,
313028.0,252228.0,,,,,,,,
313034.0,252188.0,,,,,,,,
313039.0,252125.0,,,,,,,,
313044.0,252125.0,,,,,,,,
313048.0,252054.0,,,,,,,,
313054.0,252026.0,,,,,,,,
313059.0,252000.0,,,,,,,,
313064.0,251981.0,,,,,,,,
313068.0,251970.0,,,,,,,,
313074.0,251941.0,,,,,,,,
313079.0,251915.0,,,,,,,,
313084.0,251922.0,,,,,,,,
313089.0,251922.0,,,,,,,,
313094.0,251947.0,,,,,,,,
313099.0,251983.0,,,,,,,,
313104.0,251991.0,,,,,,,,
313109.0,252050.0,,,,,,,,
313114.0,252064.0,,,,,,,,
313119.0,252086.0,,,,,,,,
313124.0,252119.0,,,,,,,,
313129.0,252157.0,,,,,,,,
313134.0,252228.0,,,,,,,,
313139.0,252284.0,,,,,,,,
313144.0,252322.0,,,,,,,,
313149.0,252379.0,,,,,,,,
313154.0,252423.0,,,,,,,,
313159.0,252515.0,,,,,,,,
313164.0,252582.0,,,,,,,,
313169.0,252685.0,,,,,,,,
313174.0,252780.0,,,,,,,,
313179.0,252866.0,,,,,,,,
313184.0,252935.0,,,,,,,,
313189.0,253023.0,,,,,,,,
313194.0,253138.0,,,,,,,,
313199.0,253209.0,,,,,,,,
313204.0,253307.0,,,,,,,,
313209.0,253406.0,,,,,,,,
313214.0,253515.0,,,,,,,,
313219.0,253593.0,,,,,,,,
313224.0,253685.0,,,,,,,,
313229.0,253808.0,,,,,,,,
313234.0,253836.0,,,,,,,,
313239.0,253924.0,,,,,,,,
313244.0,254000.0,,,,,,,,
313249.0,254087.0,,,,,,,,
313254.0,254161.0,,,,,,,,
313259.0,254256.0,,,,,,,,
313264.0,254324.0,,,,,,,,
313269.0,254424.0,,,,,,,,
313274.0,254472.0,,,,,,,,
313279.0,254569.0,,,,,,,,
313284.0,254659.0,,,,,,,,
313289.0,254724.0,,,,,,,,
313294.0,254819.0,,,,,,,,
313299.0,254903.0,,,,,,,,
313304.0,254977.0,,,,,,,,
313309.0,255075.0,,,,,,,,
313314.0,255143.0,,,,,,,,
313319.0,255231.0,,,,,,,,
313324.0,255350.0,,,,,,,,
313329.0,255398.0,,,,,,,,
313334.0,255491.0,,,,,,,,
313339.0,255547.0,,,,,,,,
313344.0,255604.0,,,,,,,,
313349.0,255696.0,,,,,,,,
313355.0,255748.0,,,,,,,,
313359.0,255796.0,,,,,,,,
313364.0,255870.0,,,,,,,,
313370.0,255934.0,,,,,,,,
313375.0,255984.0,,,,,,,,
313379.0,256060.0,,,,,,,,
313385.0,256116.0,,,,,,,,
313390.0,256163.0,,,,,,,,
313395.0,256228.0,,,,,,,,
313399.0,256287.0,,,,,,,,
313405.0,256340.0,,,,,,,,
313410.0,256409.0,,,,,,,,
313415.0,256447.0,,,,,,,,
313420.0,256522.0,,,,,,,,
313425.0,256574.0,,,,,,,,
313430.0,256648.0,,,,,,,,
313435.0,256683.0,,,,,,,,
313440.0,256737.0,,,,,,,,
313445.0,256791.0,,,,,,,,
313450.0,256813.0,,,,,,,,
313455.0,256847.0,,,,,,,,
313460.0,256925.0,,,,,,,,
313465.0,256959.0,,,,,,,,
313470.0,257024.0,,,,,,,,
313475.0,257055.0,,,,,,,,
313480.0,257103.0,,,,,,,,
313485.0,257132.0,,,,,,,,
313490.0,257214.0,,,,,,,,
313495.0,257232.0,,,,,,,,
313500.0,257285.0,,,,,,,,
313505.0,257346.0,,,,,,,,
313510.0,257385.0,,,,,,,,
313515.0,257435.0,,,,,,,,
313520.0,257472.0,,,,,,,,
313525.0,257489.0,,,,,,,,
313530.0,257549.0,,,,,,,,
313535.0,257596.0,,,,,,,,
313540.0,257630.0,,,,,,,,
313545.0,257678.0,,,,,,,,
313550.0,257707.0,,,,,,,,
313555.0,257725.0,,,,,,,,
313560.0,257801.0,,,,,,,,
313565.0,257841.0,,,,,,,,
313570.0,257870.0,,,,,,,,
313575.0,257917.0,,,,,,,,
313580.0,257978.0,,,,,,,,
313585.0,257988.0,,,,,,,,
313590.0,258071.0,,,,,,,,
313595.0,258127.0,,,,,,,,
313600.0,258194.0,,,,,,,,
313605.0,258223.0,,,,,,,,
313610.0,258288.0,,,,,,,,
313615.0,258351.0,,,,,,,,
313620.0,258416.0,,,,,,,,
313625.0,258469.0,,,,,,,,
313630.0,258549.0,,,,,,,,
313635.0,258617.0,,,,,,,,
313640.0,258687.0,,,,,,,,
313645.0,258765.0,,,,,,,,
313650.0,258806.0,,,,,,,,
313655.0,258856.0,,,,,,,,
313660.0,258913.0,,,,,,,,
313665.0,258940.0,,,,,,,,
313670.0,258965.0,,,,,,,,
313675.0,258944.0,,,,,,,,
313680.0,258880.0,,,,,,,,
313685.0,258782.0,,,,,,,,
313690.0,258622.0,,,,,,,,
313695.0,258410.0,,,,,,,,
313700.0,258157.0,,,,,,,,
313705.0,257866.0,,,,,,,,
313711.0,257531.0,,,,,,,,
313715.0,257169.0,,,,,,,,
313720.0,256771.0,,,,,,,,
313726.0,256360.0,,,,,,,,
313731.0,255921.0,,,,,,,,
313736.0,255522.0,,,,,,,,
313741.0,255106.0,,,,,,,,
313746.0,254704.0,,,,,,,,
313751.0,254312.0,,,,,,,,
313756.0,253946.0,,,,,,,,
313761.0,253592.0,,,,,,,,
313766.0,253294.0,,,,,,,,
313771.0,253028.0,,,,,,,,
313776.0,252765.0,,,,,,,,
313781.0,252548.0,,,,,,,,
313786.0,252366.0,,,,,,,,
313791.0,252212.0,,,,,,,,
313796.0,252093.0,,,,,,,,
313801.0,251992.0,,,,,,,,
313806.0,251915.0,,,,,,,,
313811.0,251863.0,,,,,,,,
313816.0,251843.0,,,,,,,,
313821.0,251825.0,,,,,,,,
313826.0,251824.0,,,,,,,,
313831.0,251856.0,,,,,,,,
313836.0,251869.0,,,,,,,,
313841.0,251905.0,,,,,,,,
313846.0,251951.0,,,,,,,,
313851.0,252000.0,,,,,,,,
313856.0,252057.0,,,,,,,,
313861.0,252125.0,,,,,,,,
313866.0,252195.0,,,,,,,,
313871.0,252240.0,,,,,,,,
313876.0,252340.0,,,,,,,,
313881.0,252382.0,,,,,,,,
313886.0,252454.0,,,,,,,,
313891.0,252543.0,,,,,,,,
313896.0,252649.0,,,,,,,,
313901.0,252722.0,,,,,,,,
313906.0,252839.0,,,,,,,,
313911.0,252917.0,,,,,,,,
313916.0,253018.0,,,,,,,,
313921.0,253104.0,,,,,,,,
313926.0,253214.0,,,,,,,,
313931.0,253337.0,,,,,,,,
313936.0,253465.0,,,,,,,,
313941.0,253575.0,,,,,,,,
313946.0,253716.0,,,,,,,,
313951.0,253822.0,,,,,,,,
313956.0,253944.0,,,,,,,,
313961.0,254093.0,,,,,,,,
313966.0,254218.0,,,,,,,,
313971.0,254325.0,,,,,,,,
313976.0,254457.0,,,,,,,,
313981.0,254543.0,,,,,,,,
313986.0,254621.0,,,,,,,,
313991.0,254696.0,,,,,,,,
313996.0,254779.0,,,,,,,,
314001.0,254827.0,,,,,,,,
314006.0,254885.0,,,,,,,,
314011.0,254923.0,,,,,,,,
314016.0,254927.0,,,,,,,,
314021.0,254967.0,,,,,,,,
314026.0,254971.0,,,,,,,,
314031.0,254972.0,,,,,,,,
314036.0,254947.0,,,,,,,,
314041.0,254912.0,,,,,,,,
314046.0,254898.0,,,,,,,,
314051.0,254883.0,,,,,,,,
314057.0,254847.0,,,,,,,,
314062.0,254807.0,,,,,,,,
314066.0,254772.0,,,,,,,,
314072.0,254743.0,,,,,,,,
314077.0,254695.0,,,,,,,,
314082.0,254689.0,,,,,,,,
314087.0,254647.0,,,,,,,,
314092.0,254619.0,,,,,,,,
314097.0,254594.0,,,,,,,,
314102.0,254586.0,,,,,,,,
314107.0,254562.0,,,,,,,,
314112.0,254589.0,,,,,,,,
314117.0,254572.0,,,,,,,,
314122.0,254577.0,,,,,,,,
314127.0,254595.0,,,,,,,,
314132.0,254642.0,,,,,,,,
314137.0,254667.0,,,,,,,,
314142.0,254671.0,,,,,,,,
314147.0,254711.0,,,,,,,,
314152.0,254761.0,,,,,,,,
314157.0,254783.0,,,,,,,,
314162.0,254837.0,,,,,,,,
314167.0,254910.0,,,,,,,,
314172.0,254961.0,,,,,,,,
314177.0,255002.0,,,,,,,,
314182.0,255076.0,,,,,,,,
314187.0,255139.0,,,,,,,,
314192.0,255212.0,,,,,,,,
314197.0,255243.0,,,,,,,,
314202.0,255315.0,,,,,,,,
314207.0,255369.0,,,,,,,,
314212.0,255434.0,,,,,,,,
314217.0,255498.0,,,,,,,,
314222.0,255582.0,,,,,,,,
314227.0,255636.0,,,,,,,,
314232.0,255728.0,,,,,,,,
314237.0,255783.0,,,,,,,,
314242.0,255841.0,,,,,,,,
314247.0,255931.0,,,,,,,,
314252.0,255981.0,,,,,,,,
314257.0,256053.0,,,,,,,,
314262.0,256136.0,,,,,,,,
314267.0,256201.0,,,,,,,,
314272.0,256257.0,,,,,,,,
314277.0,256356.0,,,,,,,,
314282.0,256410.0,,,,,,,,
314287.0,256461.0,,,,,,,,
314292.0,256510.0,,,,,,,,
314297.0,256589.0,,,,,,,,
314302.0,256639.0,,,,,,,,
314307.0,256707.0,,,,,,,,
314312.0,256765.0,,,,,,,,
314317.0,256822.0,,,,,,,,
314322.0,256892.0,,,,,,,,
314327.0,256944.0,,,,,,,,
314332.0,257003.0,,,,,,,,
314337.0,257039.0,,,,,,,,
314342.0,257084.0,,,,,,,,
314347.0,257129.0,,,,,,,,
314352.0,257213.0,,,,,,,,
314357.0,257268.0,,,,,,,,
314363.0,257334.0,,,,,,,,
314367.0,257365.0,,,,,,,,
314372.0,257420.0,,,,,,,,
314378.0,257440.0,,,,,,,,
314382.0,257516.0,,,,,,,,
314387.0,257566.0,,,,,,,,
314393.0,257601.0,,,,,,,,
314398.0,257641.0,,,,,,,,
314402.0,257673.0,,,,,,,,
314408.0,257720.0,,,,,,,,
314413.0,257759.0,,,,,,,,
314418.0,257802.0,,,,,,,,
314423.0,257840.0,,,,,,,,
314428.0,257888.0,,,,,,,,
314433.0,257945.0,,,,,,,,
314438.0,257970.0,,,,,,,,
314443.0,258013.0,,,,,,,,
314448.0,258068.0,,,,,,,,
314453.0,258100.0,,,,,,,,
314458.0,258130.0,,,,,,,,
314463.0,258152.0,,,,,,,,
314468.0,258185.0,,,,,,,,
314473.0,258217.0,,,,,,,,
314478.0,258245.0,,,,,,,,
314483.0,258288.0,,,,,,,,
314488.0,258325.0,,,,,,,,
314493.0,258335.0,,,,,,,,
314498.0,258385.0,,,,,,,,
314503.0,258441.0,,,,,,,,
314508.0,258451.0,,,,,,,,
314513.0,258464.0,,,,,,,,
314518.0,258513.0,,,,,,,,
314523.0,258550.0,,,,,,,,
314528.0,258573.0,,,,,,,,
314533.0,258587.0,,,,,,,,
314538.0,258662.0,,,,,,,,
314543.0,258659.0,,,,,,,,
314548.0,258713.0,,,,,,,,
314553.0,258740.0,,,,,,,,
314558.0,258745.0,,,,,,,,
314563.0,258784.0,,,,,,,,
314568.0,258812.0,,,,,,,,
314573.0,258826.0,,,,,,,,
314578.0,258873.0,,,,,,,,
314583.0,258902.0,,,,,,,,
314588.0,258922.0,,,,,,,,
314593.0,258951.0,,,,,,,,
314598.0,258999.0,,,,,,,,
314603.0,259042.0,,,,,,,,
314608.0,259059.0,,,,,,,,
314613.0,259101.0,,,,,,,,
314618.0,259137.0,,,,,,,,
314623.0,259180.0,,,,,,,,
314628.0,259217.0,,,,,,,,
314633.0,259265.0,,,,,,,,
314638.0,259290.0,,,,,,,,
314643.0,259337.0,,,,,,,,
314648.0,259361.0,,,,,,,,
314653.0,259375.0,,,,,,,,
314658.0,259382.0,,,,,,,,
314663.0,259331.0,,,,,,,,
314668.0,259279.0,,,,,,,,
314673.0,259159.0,,,,,,,,
314678.0,258990.0,,,,,,,,
314683.0,258760.0,,,,,,,,
314688.0,258512.0,,,,,,,,
314693.0,258224.0,,,,,,,,
314698.0,257884.0,,,,,,,,
314703.0,257477.0,,,,,,,,
314708.0,257090.0,,,,,,,,
314713.0,256667.0,,,,,,,,
314719.0,256245.0,,,,,,,,
314723.0,255820.0,,,,,,,,
314728.0,255430.0,,,,,,,,
314734.0,255015.0,,,,,,,,
314739.0,254635.0,,,,,,,,
314743.0,254249.0,,,,,,,,
314749.0,253921.0,,,,,,,,
314754.0,253599.0,,,,,,,,
314758.0,253321.0,,,,,,,,
314764.0,253070.0,,,,,,,,
314769.0,252833.0,,,,,,,,
314774.0,252648.0,,,,,,,,
314779.0,252474.0,,,,,,,,
314784.0,252332.0,,,,,,,,
314789.0,252238.0,,,,,,,,
314794.0,252128.0,,,,,,,,
314799.0,252088.0,,,,,,,,
314804.0,252004.0,,,,,,,,
314809.0,251965.0,,,,,,,,
314814.0,251935.0,,,,,,,,
314819.0,251918.0,,,,,,,,
314824.0,251906.0,,,,,,,,
314829.0,251942.0,,,,,,,,
314834.0,251972.0,,,,,,,,
314839.0,251999.0,,,,,,,,
314844.0,252023.0,,,,,,,,
314849.0,252081.0,,,,,,,,
314854.0,252133.0,,,,,,,,
314859.0,252179.0,,,,,,,,
314864.0,252251.0,,,,,,,,
314869.0,252299.0,,,,,,,,
314874.0,252374.0,,,,,,,,
314879.0,252409.0,,,,,,,,
314884.0,252502.0,,,,,,,,
314889.0,252548.0,,,,,,,,
314894.0,252619.0,,,,,,,,
314899.0,252682.0,,,,,,,,
314904.0,252770.0,,,,,,,,
314909.0,252865.0,,,,,,,,
314914.0,252946.0,,,,,,,,
314919.0,253059.0,,,,,,,,
314924.0,253140.0,,,,,,,,
314929.0,253255.0,,,,,,,,
314934.0,253375.0,,,,,,,,
314939.0,253466.0,,,,,,,,
314944.0,253563.0,,,,,,,,
314949.0,253668.0,,,,,,,,
314954.0,253765.0,,,,,,,,
314959.0,253854.0,,,,,,,,
314964.0,253945.0,,,,,,,,
314969.0,254014.0,,,,,,,,
314974.0,254084.0,,,,,,,,
314979.0,254150.0,,,,,,,,
314984.0,254198.0,,,,,,,,
314989.0,254237.0,,,,,,,,
314994.0,254269.0,,,,,,,,
314999.0,254289.0,,,,,,,,
315004.0,254270.0,,,,,,,,
315009.0,254288.0,,,,,,,,
315014.0,254302.0,,,,,,,,
315019.0,254238.0,,,,,,,,
315024.0,254214.0,,,,,,,,
315029.0,254163.0,,,,,,,,
315034.0,254136.0,,,,,,,,
315039.0,254080.0,,,,,,,,
315044.0,254057.0,,,,,,,,
315049.0,254004.0,,,,,,,,
315054.0,253958.0,,,,,,,,
315059.0,253914.0,,,,,,,,
315064.0,253880.0,,,,,,,,
315070.0,253836.0,,,,,,,,
315074.0,253817.0,,,,,,,,
315079.0,253780.0,,,,,,,,
315085.0,253768.0,,,,,,,,
315090.0,253732.0,,,,,,,,
315094.0,253727.0,,,,,,,,
315100.0,253699.0,,,,,,,,
315105.0,253719.0,,,,,,,,
315110.0,253722.0,,,,,,,,
315115.0,253721.0,,,,,,,,
315120.0,253730.0,,,,,,,,
315125.0,253754.0,,,,,,,,
315130.0,253775.0,,,,,,,,
315135.0,253798.0,,,,,,,,
315140.0,253812.0,,,,,,,,
315145.0,253841.0,,,,,,,,
315150.0,253856.0,,,,,,,,
315155.0,253920.0,,,,,,,,
315160.0,253947.0,,,,,,,,
315165.0,253982.0,,,,,,,,
315170.0,254026.0,,,,,,,,
315175.0,254062.0,,,,,,,,
315180.0,254102.0,,,,,,,,
315185.0,254181.0,,,,,,,,
315190.0,254210.0,,,,,,,,
315195.0,254278.0,,,,,,,,
315200.0,254323.0,,,,,,,,
315205.0,254399.0,,,,,,,,
315210.0,254477.0,,,,,,,,
315215.0,254527.0,,,,,,,,
315220.0,254587.0,,,,,,,,
315225.0,254693.0,,,,,,,,
315230.0,254731.0,,,,,,,,
315235.0,254798.0,,,,,,,,
315240.0,254859.0,,,,,,,,
315245.0,254927.0,,,,,,,,
315250.0,255011.0,,,,,,,,
315255.0,255059.0,,,,,,,,
315260.0,255134.0,,,,,,,,
315265.0,255199.0,,,,,,,,
315270.0,255267.0,,,,,,,,
315275.0,255318.0,,,,,,,,
315280.0,255405.0,,,,,,,,
315285.0,255453.0,,,,,,,,
315290.0,255510.0,,,,,,,,
315295.0,255584.0,,,,,,,,
315300.0,255648.0,,,,,,,,
315305.0,255724.0,,,,,,,,
315310.0,255779.0,,,,,,,,
315315.0,255841.0,,,,,,,,
315320.0,255931.0,,,,,,,,
315325.0,255987.0,,,,,,,,
315330.0,256062.0,,,,,,,,
315335.0,256120.0,,,,,,,,
315340.0,256194.0,,,,,,,,
315345.0,256251.0,,,,,,,,
315350.0,256325.0,,,,,,,,
315355.0,256361.0,,,,,,,,
315360.0,256450.0,,,,,,,,
315365.0,256514.0,,,,,,,,
315370.0,256538.0,,,,,,,,
315375.0,256608.0,,,,,,,,
315381.0,256657.0,,,,,,,,
315385.0,256726.0,,,,,,,,
315390.0,256762.0,,,,,,,,
315395.0,256817.0,,,,,,,,
315401.0,256873.0,,,,,,,,
315406.0,256916.0,,,,,,,,
315410.0,256971.0,,,,,,,,
315415.0,257005.0,,,,,,,,
315421.0,257055.0,,,,,,,,
315426.0,257096.0,,,,,,,,
315430.0,257142.0,,,,,,,,
315436.0,257172.0,,,,,,,,
315441.0,257233.0,,,,,,,,
315446.0,257257.0,,,,,,,,
315451.0,257298.0,,,,,,,,
315456.0,257315.0,,,,,,,,
315461.0,257356.0,,,,,,,,
315466.0,257384.0,,,,,,,,
315471.0,257412.0,,,,,,,,
315476.0,257425.0,,,,,,,,
315481.0,257475.0,,,,,,,,
315486.0,257490.0,,,,,,,,
315491.0,257510.0,,,,,,,,
315496.0,257553.0,,,,,,,,
315501.0,257559.0,,,,,,,,
315506.0,257594.0,,,,,,,,
315511.0,257627.0,,,,,,,,
315516.0,257635.0,,,,,,,,
315521.0,257657.0,,,,,,,,
315526.0,257689.0,,,,,,,,
315531.0,257692.0,,,,,,,,
315536.0,257711.0,,,,,,,,
315541.0,257725.0,,,,,,,,
315546.0,257770.0,,,,,,,,
315551.0,257768.0,,,,,,,,
315556.0,257788.0,,,,,,,,
315561.0,257797.0,,,,,,,,
315566.0,257822.0,,,,,,,,
315571.0,257876.0,,,,,,,,
315576.0,257894.0,,,,,,,,
315581.0,257902.0,,,,,,,,
315586.0,257929.0,,,,,,,,
315591.0,257969.0,,,,,,,,
315596.0,258015.0,,,,,,,,
315601.0,258066.0,,,,,,,,
315606.0,258089.0,,,,,,,,
315611.0,258148.0,,,,,,,,
315616.0,258180.0,,,,,,,,
315621.0,258216.0,,,,,,,,
315626.0,258227.0,,,,,,,,
315631.0,258259.0,,,,,,,,
315636.0,258270.0,,,,,,,,
315641.0,258256.0,,,,,,,,
315646.0,258257.0,,,,,,,,
315651.0,258176.0,,,,,,,,
315656.0,258062.0,,,,,,,,
315661.0,257897.0,,,,,,,,
315666.0,257655.0,,,,,,,,
315671.0,257412.0,,,,,,,,
315676.0,257101.0,,,,,,,,
315681.0,256746.0,,,,,,,,
315686.0,256376.0,,,,,,,,
315691.0,255985.0,,,,,,,,
315696.0,255576.0,,,,,,,,
315701.0,255149.0,,,,,,,,
315706.0,254697.0,,,,,,,,
315711.0,254300.0,,,,,,,,
315716.0,253862.0,,,,,,,,
315721.0,253475.0,,,,,,,,
315726.0,253084.0,,,,,,,,
315731.0,252734.0,,,,,,,,
315736.0,252420.0,,,,,,,,
315742.0,252116.0,,,,,,,,
315747.0,251853.0,,,,,,,,
315751.0,251640.0,,,,,,,,
315757.0,251411.0,,,,,,,,
315762.0,251252.0,,,,,,,,
315766.0,251103.0,,,,,,,,
315771.0,251003.0,,,,,,,,
315777.0,250886.0,,,,,,,,
315782.0,250801.0,,,,,,,,
315786.0,250768.0,,,,,,,,
315792.0,250734.0,,,,,,,,
315797.0,250687.0,,,,,,,,
315802.0,250690.0,,,,,,,,
315807.0,250694.0,,,,,,,,
315812.0,250704.0,,,,,,,,
315817.0,250752.0,,,,,,,,
315822.0,250749.0,,,,,,,,
315827.0,250782.0,,,,,,,,
315832.0,250839.0,,,,,,,,
315837.0,250892.0,,,,,,,,
315842.0,250949.0,,,,,,,,
315847.0,250985.0,,,,,,,,
315852.0,251039.0,,,,,,,,
315857.0,251086.0,,,,,,,,
315862.0,251147.0,,,,,,,,
315867.0,251196.0,,,,,,,,
315872.0,251255.0,,,,,,,,
315877.0,251317.0,,,,,,,,
315882.0,251390.0,,,,,,,,
315887.0,251442.0,,,,,,,,
315892.0,251531.0,,,,,,,,
315897.0,251591.0,,,,,,,,
315902.0,251691.0,,,,,,,,
315907.0,251791.0,,,,,,,,
315912.0,251890.0,,,,,,,,
315917.0,251994.0,,,,,,,,
315922.0,252102.0,,,,,,,,
315927.0,252228.0,,,,,,,,
315932.0,252329.0,,,,,,,,
315937.0,252432.0,,,,,,,,
315942.0,252518.0,,,,,,,,
315947.0,252635.0,,,,,,,,
315952.0,252702.0,,,,,,,,
315957.0,252771.0,,,,,,,,
315962.0,252824.0,,,,,,,,
315967.0,252886.0,,,,,,,,
315972.0,252950.0,,,,,,,,
315977.0,252957.0,,,,,,,,
315982.0,253018.0,,,,,,,,
315987.0,253026.0,,,,,,,,
315992.0,253015.0,,,,,,,,
315997.0,253036.0,,,,,,,,
316002.0,253019.0,,,,,,,,
316007.0,253006.0,,,,,,,,
316012.0,252961.0,,,,,,,,
316017.0,252921.0,,,,,,,,
316022.0,252877.0,,,,,,,,
316027.0,252852.0,,,,,,,,
316032.0,252792.0,,,,,,,,
316037.0,252737.0,,,,,,,,
316042.0,252700.0,,,,,,,,
316047.0,252647.0,,,,,,,,
316052.0,252592.0,,,,,,,,
316057.0,252541.0,,,,,,,,
316062.0,252510.0,,,,,,,,
316067.0,252461.0,,,,,,,,
316072.0,252441.0,,,,,,,,
316077.0,252419.0,,,,,,,,
316083.0,252402.0,,,,,,,,
316088.0,252378.0,,,,,,,,
316092.0,252392.0,,,,,,,,
316097.0,252402.0,,,,,,,,
316103.0,252423.0,,,,,,,,
316108.0,252439.0,,,,,,,,
316112.0,252467.0,,,,,,,,
316118.0,252486.0,,,,,,,,
316123.0,252536.0,,,,,,,,
316128.0,252610.0,,,,,,,,
316133.0,252632.0,,,,,,,,
316138.0,252691.0,,,,,,,,
316143.0,252722.0,,,,,,,,
316148.0,252800.0,,,,,,,,
316153.0,252865.0,,,,,,,,
316158.0,252906.0,,,,,,,,
316163.0,252976.0,,,,,,,,
316168.0,253050.0,,,,,,,,
316173.0,253103.0,,,,,,,,
316178.0,253183.0,,,,,,,,
316183.0,253251.0,,,,,,,,
316188.0,253300.0,,,,,,,,
316193.0,253393.0,,,,,,,,
316198.0,253481.0,,,,,,,,
316203.0,253531.0,,,,,,,,
316208.0,253612.0,,,,,,,,
316213.0,253695.0,,,,,,,,
316218.0,253779.0,,,,,,,,
316223.0,253852.0,,,,,,,,
316228.0,253933.0,,,,,,,,
316233.0,254008.0,,,,,,,,
316238.0,254111.0,,,,,,,,
316243.0,254192.0,,,,,,,,
316248.0,254279.0,,,,,,,,
316253.0,254331.0,,,,,,,,
316258.0,254456.0,,,,,,,,
316263.0,254490.0,,,,,,,,
316268.0,254570.0,,,,,,,,
316273.0,254648.0,,,,,,,,
316278.0,254717.0,,,,,,,,
316283.0,254768.0,,,,,,,,
316288.0,254826.0,,,,,,,,
316293.0,254917.0,,,,,,,,
316298.0,254944.0,,,,,,,,
316303.0,255017.0,,,,,,,,
316308.0,255082.0,,,,,,,,
316313.0,255146.0,,,,,,,,
316318.0,255199.0,,,,,,,,
316323.0,255270.0,,,,,,,,
316328.0,255339.0,,,,,,,,
316333.0,255400.0,,,,,,,,
316338.0,255467.0,,,,,,,,
316343.0,255517.0,,,,,,,,
316348.0,255586.0,,,,,,,,
316353.0,255650.0,,,,,,,,
316358.0,255700.0,,,,,,,,
316363.0,255720.0,,,,,,,,
316368.0,255786.0,,,,,,,,
316373.0,255860.0,,,,,,,,
316378.0,255896.0,,,,,,,,
316383.0,255946.0,,,,,,,,
316388.0,255999.0,,,,,,,,
316393.0,256074.0,,,,,,,,
316398.0,256099.0,,,,,,,,
316403.0,256165.0,,,,,,,,
316408.0,256215.0,,,,,,,,
316413.0,256220.0,,,,,,,,
316419.0,256316.0,,,,,,,,
316424.0,256350.0,,,,,,,,
316428.0,256400.0,,,,,,,,
316433.0,256489.0,,,,,,,,
316438.0,256518.0,,,,,,,,
316444.0,256578.0,,,,,,,,
316449.0,256617.0,,,,,,,,
316453.0,256666.0,,,,,,,,
316459.0,256714.0,,,,,,,,
316464.0,256758.0,,,,,,,,
316468.0,256788.0,,,,,,,,
316474.0,256838.0,,,,,,,,
316479.0,256895.0,,,,,,,,
316484.0,256922.0,,,,,,,,
316489.0,256980.0,,,,,,,,
316494.0,257020.0,,,,,,,,
316499.0,257078.0,,,,,,,,
316504.0,257109.0,,,,,,,,
316509.0,257160.0,,,,,,,,
316514.0,257193.0,,,,,,,,
316519.0,257227.0,,,,,,,,
316524.0,257281.0,,,,,,,,
316529.0,257314.0,,,,,,,,
316534.0,257338.0,,,,,,,,
316539.0,257379.0,,,,,,,,
316544.0,257422.0,,,,,,,,
316549.0,257477.0,,,,,,,,
316554.0,257492.0,,,,,,,,
316559.0,257564.0,,,,,,,,
316564.0,257591.0,,,,,,,,
316569.0,257642.0,,,,,,,,
316574.0,257711.0,,,,,,,,
316579.0,257744.0,,,,,,,,
316584.0,257802.0,,,,,,,,
316589.0,257848.0,,,,,,,,
316594.0,257904.0,,,,,,,,
316599.0,257948.0,,,,,,,,
316604.0,258033.0,,,,,,,,
316609.0,258066.0,,,,,,,,
316614.0,258139.0,,,,,,,,
316619.0,258201.0,,,,,,,,
316624.0,258274.0,,,,,,,,
316629.0,258326.0,,,,,,,,
316634.0,258414.0,,,,,,,,
316639.0,258461.0,,,,,,,,
316644.0,258504.0,,,,,,,,
316649.0,258552.0,,,,,,,,
316654.0,258540.0,,,,,,,,
316659.0,258528.0,,,,,,,,
316664.0,258474.0,,,,,,,,
316669.0,258372.0,,,,,,,,
316674.0,258256.0,,,,,,,,
316679.0,258039.0,,,,,,,,
316684.0,257762.0,,,,,,,,
316689.0,257444.0,,,,,,,,
316694.0,257113.0,,,,,,,,
316699.0,256731.0,,,,,,,,
316704.0,256332.0,,,,,,,,
316709.0,255914.0,,,,,,,,
316714.0,255495.0,,,,,,,,
316719.0,255074.0,,,,,,,,
316724.0,254636.0,,,,,,,,
316729.0,254241.0,,,,,,,,
316734.0,253846.0,,,,,,,,
316739.0,253489.0,,,,,,,,
316744.0,253156.0,,,,,,,,
316749.0,252836.0,,,,,,,,
316754.0,252565.0,,,,,,,,
316760.0,252293.0,,,,,,,,
316764.0,252085.0,,,,,,,,
316769.0,251907.0,,,,,,,,
316774.0,251756.0,,,,,,,,
316779.0,251592.0,,,,,,,,
316785.0,251493.0,,,,,,,,
316790.0,251409.0,,,,,,,,
316794.0,251392.0,,,,,,,,
316800.0,251347.0,,,,,,,,
316805.0,251312.0,,,,,,,,
316809.0,251336.0,,,,,,,,
316815.0,251293.0,,,,,,,,
316820.0,251322.0,,,,,,,,
316825.0,251359.0,,,,,,,,
316830.0,251381.0,,,,,,,,
316835.0,251409.0,,,,,,,,
316840.0,251472.0,,,,,,,,
316845.0,251535.0,,,,,,,,
316850.0,251569.0,,,,,,,,
316855.0,251629.0,,,,,,,,
316860.0,251702.0,,,,,,,,
316865.0,251751.0,,,,,,,,
316870.0,251819.0,,,,,,,,
316875.0,251896.0,,,,,,,,
316880.0,251976.0,,,,,,,,
316885.0,252055.0,,,,,,,,
316890.0,252145.0,,,,,,,,
316895.0,252224.0,,,,,,,,
316900.0,252317.0,,,,,,,,
316905.0,252400.0,,,,,,,,
316910.0,252499.0,,,,,,,,
316915.0,252606.0,,,,,,,,
316920.0,252704.0,,,,,,,,
316925.0,252838.0,,,,,,,,
316930.0,252966.0,,,,,,,,
316935.0,253097.0,,,,,,,,
316940.0,253222.0,,,,,,,,
316945.0,253323.0,,,,,,,,
316950.0,253426.0,,,,,,,,
316955.0,253561.0,,,,,,,,
316960.0,253657.0,,,,,,,,
316965.0,253745.0,,,,,,,,
316970.0,253818.0,,,,,,,,
316975.0,253899.0,,,,,,,,
316980.0,253959.0,,,,,,,,
316985.0,254011.0,,,,,,,,
316990.0,254037.0,,,,,,,,
316995.0,254075.0,,,,,,,,
317000.0,254078.0,,,,,,,,
317005.0,254123.0,,,,,,,,
317010.0,254073.0,,,,,,,,
317015.0,254062.0,,,,,,,,
317020.0,254018.0,,,,,,,,
317025.0,254016.0,,,,,,,,
317030.0,253981.0,,,,,,,,
317035.0,253935.0,,,,,,,,
317040.0,253896.0,,,,,,,,
317045.0,253832.0,,,,,,,,
317050.0,253810.0,,,,,,,,
317055.0,253766.0,,,,,,,,
317060.0,253720.0,,,,,,,,
317065.0,253693.0,,,,,,,,
317070.0,253649.0,,,,,,,,
317075.0,253612.0,,,,,,,,
317080.0,253591.0,,,,,,,,
317085.0,253574.0,,,,,,,,
317091.0,253556.0,,,,,,,,
317095.0,253550.0,,,,,,,,
317100.0,253552.0,,,,,,,,
317105.0,253554.0,,,,,,,,
317111.0,253571.0,,,,,,,,
317116.0,253589.0,,,,,,,,
317120.0,253613.0,,,,,,,,
317125.0,253669.0,,,,,,,,
317131.0,253674.0,,,,,,,,
317136.0,253729.0,,,,,,,,
317141.0,253778.0,,,,,,,,
317146.0,253837.0,,,,,,,,
317151.0,253870.0,,,,,,,,
317156.0,253931.0,,,,,,,,
317161.0,253990.0,,,,,,,,
317166.0,254055.0,,,,,,,,
317171.0,254105.0,,,,,,,,
317176.0,254175.0,,,,,,,,
317181.0,254241.0,,,,,,,,
317186.0,254310.0,,,,,,,,
317191.0,254398.0,,,,,,,,
317196.0,254459.0,,,,,,,,
317201.0,254545.0,,,,,,,,
317206.0,254609.0,,,,,,,,
317211.0,254694.0,,,,,,,,
317216.0,254771.0,,,,,,,,
317221.0,254847.0,,,,,,,,
317226.0,254917.0,,,,,,,,
317231.0,254997.0,,,,,,,,
317236.0,255087.0,,,,,,,,
317241.0,255158.0,,,,,,,,
317246.0,255240.0,,,,,,,,
317251.0,255303.0,,,,,,,,
317256.0,255369.0,,,,,,,,
317261.0,255441.0,,,,,,,,
317266.0,255488.0,,,,,,,,
317271.0,255565.0,,,,,,,,
317276.0,255649.0,,,,,,,,
317281.0,255719.0,,,,,,,,
317286.0,255801.0,,,,,,,,
317291.0,255848.0,,,,,,,,
317296.0,255896.0,,,,,,,,
317301.0,255985.0,,,,,,,,
317306.0,256063.0,,,,,,,,
317311.0,256113.0,,,,,,,,
317316.0,256155.0,,,,,,,,
317321.0,256252.0,,,,,,,,
317326.0,256290.0,,,,,,,,
317331.0,256374.0,,,,,,,,
317336.0,256411.0,,,,,,,,
317341.0,256482.0,,,,,,,,
317346.0,256518.0,,,,,,,,
317351.0,256583.0,,,,,,,,
317356.0,256622.0,,,,,,,,
317361.0,256682.0,,,,,,,,
317366.0,256752.0,,,,,,,,
317371.0,256777.0,,,,,,,,
317376.0,256804.0,,,,,,,,
317381.0,256875.0,,,,,,,,
317386.0,256901.0,,,,,,,,
317391.0,256931.0,,,,,,,,
317396.0,256960.0,,,,,,,,
317401.0,256999.0,,,,,,,,
317406.0,257038.0,,,,,,,,
317411.0,257080.0,,,,,,,,
317416.0,257101.0,,,,,,,,
317421.0,257126.0,,,,,,,,
317426.0,257160.0,,,,,,,,
317431.0,257206.0,,,,,,,,
317437.0,257227.0,,,,,,,,
317441.0,257223.0,,,,,,,,
317446.0,257243.0,,,,,,,,
317451.0,257290.0,,,,,,,,
317457.0,257315.0,,,,,,,,
317462.0,257321.0,,,,,,,,
317467.0,257341.0,,,,,,,,
317472.0,257383.0,,,,,,,,
317477.0,257402.0,,,,,,,,
317482.0,257402.0,,,,,,,,
317487.0,257423.0,,,,,,,,
317492.0,257466.0,,,,,,,,
317497.0,257478.0,,,,,,,,
317502.0,257494.0,,,,,,,,
317507.0,257536.0,,,,,,,,
317512.0,257554.0,,,,,,,,
317517.0,257561.0,,,,,,,,
317522.0,257606.0,,,,,,,,
317527.0,257615.0,,,,,,,,
317532.0,257630.0,,,,,,,,
317537.0,257669.0,,,,,,,,
317542.0,257685.0,,,,,,,,
317547.0,257723.0,,,,,,,,
317552.0,257740.0,,,,,,,,
317557.0,257777.0,,,,,,,,
317562.0,257817.0,,,,,,,,
317567.0,257836.0,,,,,,,,
317572.0,257878.0,,,,,,,,
317577.0,257899.0,,,,,,,,
317582.0,257924.0,,,,,,,,
317587.0,257951.0,,,,,,,,
317592.0,258001.0,,,,,,,,
317597.0,258046.0,,,,,,,,
317602.0,258067.0,,,,,,,,
317607.0,258122.0,,,,,,,,
317612.0,258163.0,,,,,,,,
317617.0,258166.0,,,,,,,,
317622.0,258207.0,,,,,,,,
317627.0,258225.0,,,,,,,,
317632.0,258215.0,,,,,,,,
317637.0,258155.0,,,,,,,,
317642.0,258088.0,,,,,,,,
317647.0,257938.0,,,,,,,,
317652.0,257783.0,,,,,,,,
317657.0,257551.0,,,,,,,,
317662.0,257273.0,,,,,,,,
317667.0,256981.0,,,,,,,,
317672.0,256610.0,,,,,,,,
317677.0,256270.0,,,,,,,,
317682.0,255859.0,,,,,,,,
317687.0,255449.0,,,,,,,,
317692.0,255008.0,,,,,,,,
317697.0,254623.0,,,,,,,,
317702.0,254226.0,,,,,,,,
317707.0,253802.0,,,,,,,,
317712.0,253443.0,,,,,,,,
317717.0,253069.0,,,,,,,,
317722.0,252749.0,,,,,,,,
317727.0,252450.0,,,,,,,,
317732.0,252168.0,,,,,,,,
317737.0,251912.0,,,,,,,,
317742.0,251701.0,,,,,,,,
317747.0,251522.0,,,,,,,,
317752.0,251362.0,,,,,,,,
317757.0,251248.0,,,,,,,,
317762.0,251137.0,,,,,,,,
317767.0,251072.0,,,,,,,,
317773.0,251010.0,,,,,,,,
317777.0,251001.0,,,,,,,,
317782.0,250958.0,,,,,,,,
317787.0,250950.0,,,,,,,,
317793.0,250967.0,,,,,,,,
317798.0,251005.0,,,,,,,,
317802.0,251043.0,,,,,,,,
317807.0,251109.0,,,,,,,,
317813.0,251102.0,,,,,,,,
317818.0,251164.0,,,,,,,,
317823.0,251238.0,,,,,,,,
317828.0,251289.0,,,,,,,,
317833.0,251342.0,,,,,,,,
317838.0,251387.0,,,,,,,,
317843.0,251462.0,,,,,,,,
317848.0,251529.0,,,,,,,,
317853.0,251601.0,,,,,,,,
317858.0,251657.0,,,,,,,,
317863.0,251734.0,,,,,,,,
317868.0,251815.0,,,,,,,,
317873.0,251917.0,,,,,,,,
317878.0,251995.0,,,,,,,,
317883.0,252088.0,,,,,,,,
317888.0,252200.0,,,,,,,,
317893.0,252316.0,,,,,,,,
317898.0,252427.0,,,,,,,,
317903.0,252540.0,,,,,,,,
317908.0,252653.0,,,,,,,,
317913.0,252778.0,,,,,,,,
317918.0,252885.0,,,,,,,,
317923.0,252965.0,,,,,,,,
317928.0,253078.0,,,,,,,,
317933.0,253169.0,,,,,,,,
317938.0,253235.0,,,,,,,,
317943.0,253286.0,,,,,,,,
317948.0,253341.0,,,,,,,,
317953.0,253403.0,,,,,,,,
317958.0,253453.0,,,,,,,,
317963.0,253450.0,,,,,,,,
317968.0,253455.0,,,,,,,,
317973.0,253461.0,,,,,,,,
317978.0,253453.0,,,,,,,,
317983.0,253424.0,,,,,,,,
317988.0,253409.0,,,,,,,,
317993.0,253375.0,,,,,,,,
317998.0,253321.0,,,,,,,,
318003.0,253264.0,,,,,,,,
318008.0,253233.0,,,,,,,,
318013.0,253159.0,,,,,,,,
318018.0,253119.0,,,,,,,,
318023.0,253085.0,,,,,,,,
318028.0,253015.0,,,,,,,,
318033.0,252965.0,,,,,,,,
318038.0,252932.0,,,,,,,,
318043.0,252883.0,,,,,,,,
318048.0,252850.0,,,,,,,,
318053.0,252812.0,,,,,,,,
318058.0,252793.0,,,,,,,,
318063.0,252769.0,,,,,,,,
318068.0,252748.0,,,,,,,,
318073.0,252761.0,,,,,,,,
318078.0,252745.0,,,,,,,,
318083.0,252764.0,,,,,,,,
318088.0,252759.0,,,,,,,,
318093.0,252779.0,,,,,,,,
318098.0,252831.0,,,,,,,,
318103.0,252843.0,,,,,,,,
318108.0,252877.0,,,,,,,,
318113.0,252914.0,,,,,,,,
318119.0,252955.0,,,,,,,,
318123.0,253015.0,,,,,,,,
318128.0,253071.0,,,,,,,,
318133.0,253076.0,,,,,,,,
318138.0,253159.0,,,,,,,,
318144.0,253207.0,,,,,,,,
318149.0,253270.0,,,,,,,,
318154.0,253307.0,,,,,,,,
318159.0,253383.0,,,,,,,,
318164.0,253426.0,,,,,,,,
318169.0,253483.0,,,,,,,,
318174.0,253555.0,,,,,,,,
318179.0,253623.0,,,,,,,,
318184.0,253686.0,,,,,,,,
318189.0,253746.0,,,,,,,,
318194.0,253819.0,,,,,,,,
318199.0,253876.0,,,,,,,,
318204.0,253948.0,,,,,,,,
318209.0,254021.0,,,,,,,,
318214.0,254081.0,,,,,,,,
318219.0,254162.0,,,,,,,,
318224.0,254249.0,,,,,,,,
318229.0,254295.0,,,,,,,,
318234.0,254356.0,,,,,,,,
318239.0,254438.0,,,,,,,,
318244.0,254473.0,,,,,,,,
318249.0,254535.0,,,,,,,,
318254.0,254622.0,,,,,,,,
318259.0,254667.0,,,,,,,,
318264.0,254719.0,,,,,,,,
318269.0,254787.0,,,,,,,,
318274.0,254865.0,,,,,,,,
318279.0,254905.0,,,,,,,,
318284.0,254984.0,,,,,,,,
318289.0,255021.0,,,,,,,,
318294.0,255086.0,,,,,,,,
318299.0,255120.0,,,,,,,,
318304.0,255180.0,,,,,,,,
318309.0,255241.0,,,,,,,,
318314.0,255282.0,,,,,,,,
318319.0,255356.0,,,,,,,,
318324.0,255386.0,,,,,,,,
318329.0,255441.0,,,,,,,,
318334.0,255485.0,,,,,,,,
318339.0,255544.0,,,,,,,,
318344.0,255604.0,,,,,,,,
318349.0,255639.0,,,,,,,,
318354.0,255665.0,,,,,,,,
318359.0,255727.0,,,,,,,,
318364.0,255755.0,,,,,,,,
318369.0,255779.0,,,,,,,,
318374.0,255833.0,,,,,,,,
318379.0,255877.0,,,,,,,,
318384.0,255910.0,,,,,,,,
318389.0,255941.0,,,,,,,,
318394.0,255979.0,,,,,,,,
318399.0,256016.0,,,,,,,,
318404.0,256039.0,,,,,,,,
318409.0,256084.0,,,,,,,,
318414.0,256122.0,,,,,,,,
318419.0,256147.0,,,,,,,,
318424.0,256155.0,,,,,,,,
318429.0,256191.0,,,,,,,,
318434.0,256220.0,,,,,,,,
318439.0,256244.0,,,,,,,,
318444.0,256263.0,,,,,,,,
318449.0,256273.0,,,,,,,,
318454.0,256334.0,,,,,,,,
318459.0,256347.0,,,,,,,,
318464.0,256373.0,,,,,,,,
318470.0,256398.0,,,,,,,,
318475.0,256418.0,,,,,,,,
318479.0,256422.0,,,,,,,,
318484.0,256454.0,,,,,,,,
318489.0,256485.0,,,,,,,,
318495.0,256499.0,,,,,,,,
318500.0,256504.0,,,,,,,,
318505.0,256526.0,,,,,,,,
318510.0,256569.0,,,,,,,,
318515.0,256583.0,,,,,,,,
318520.0,256608.0,,,,,,,,
318525.0,256622.0,,,,,,,,
318530.0,256656.0,,,,,,,,
318535.0,256691.0,,,,,,,,
318540.0,256715.0,,,,,,,,
318545.0,256763.0,,,,,,,,
318550.0,256761.0,,,,,,,,
318555.0,256827.0,,,,,,,,
318560.0,256848.0,,,,,,,,
318565.0,256890.0,,,,,,,,
318570.0,256937.0,,,,,,,,
318575.0,256984.0,,,,,,,,
318580.0,257008.0,,,,,,,,
318585.0,257053.0,,,,,,,,
318590.0,257068.0,,,,,,,,
318595.0,257092.0,,,,,,,,
318600.0,257084.0,,,,,,,,
318605.0,257038.0,,,,,,,,
318610.0,256983.0,,,,,,,,
318615.0,256862.0,,,,,,,,
318620.0,256673.0,,,,,,,,
318625.0,256441.0,,,,,,,,
318630.0,256170.0,,,,,,,,
318635.0,255854.0,,,,,,,,
318640.0,255489.0,,,,,,,,
318645.0,255113.0,,,,,,,,
318650.0,254708.0,,,,,,,,
318655.0,254295.0,,,,,,,,
318660.0,253863.0,,,,,,,,
318665.0,253422.0,,,,,,,,
318670.0,253028.0,,,,,,,,
318675.0,252612.0,,,,,,,,
318680.0,252245.0,,,,,,,,
318685.0,251882.0,,,,,,,,
318690.0,251554.0,,,,,,,,
318695.0,251274.0,,,,,,,,
318700.0,250990.0,,,,,,,,
318705.0,250751.0,,,,,,,,
318710.0,250543.0,,,,,,,,
318715.0,250373.0,,,,,,,,
318720.0,250244.0,,,,,,,,
318725.0,250109.0,,,,,,,,
318730.0,249998.0,,,,,,,,
318735.0,249938.0,,,,,,,,
318740.0,249885.0,,,,,,,,
318745.0,249825.0,,,,,,,,
318750.0,249818.0,,,,,,,,
318755.0,249812.0,,,,,,,,
318760.0,249831.0,,,,,,,,
318765.0,249848.0,,,,,,,,
318770.0,249876.0,,,,,,,,
318775.0,249894.0,,,,,,,,
318780.0,249936.0,,,,,,,,
318785.0,250012.0,,,,,,,,
318790.0,250037.0,,,,,,,,
318795.0,250105.0,,,,,,,,
318800.0,250158.0,,,,,,,,
318805.0,250205.0,,,,,,,,
318811.0,250260.0,,,,,,,,
318816.0,250319.0,,,,,,,,
318820.0,250396.0,,,,,,,,
318825.0,250442.0,,,,,,,,
318831.0,250496.0,,,,,,,,
318836.0,250557.0,,,,,,,,
318840.0,250624.0,,,,,,,,
318845.0,250693.0,,,,,,,,
318851.0,250791.0,,,,,,,,
318856.0,250851.0,,,,,,,,
318861.0,250967.0,,,,,,,,
318866.0,251069.0,,,,,,,,
318871.0,251166.0,,,,,,,,
318876.0,251283.0,,,,,,,,
318881.0,251409.0,,,,,,,,
318886.0,251495.0,,,,,,,,
318891.0,251621.0,,,,,,,,
318896.0,251719.0,,,,,,,,
318901.0,251832.0,,,,,,,,
318906.0,251905.0,,,,,,,,
318911.0,251989.0,,,,,,,,
318916.0,252061.0,,,,,,,,
318921.0,252117.0,,,,,,,,
318926.0,252161.0,,,,,,,,
318931.0,252213.0,,,,,,,,
318936.0,252239.0,,,,,,,,
318941.0,252224.0,,,,,,,,
318946.0,252208.0,,,,,,,,
318951.0,252211.0,,,,,,,,
318956.0,252177.0,,,,,,,,
318961.0,252184.0,,,,,,,,
318966.0,252152.0,,,,,,,,
318971.0,252093.0,,,,,,,,
318976.0,252060.0,,,,,,,,
318981.0,252005.0,,,,,,,,
318986.0,251948.0,,,,,,,,
318991.0,251897.0,,,,,,,,
318996.0,251858.0,,,,,,,,
319001.0,251810.0,,,,,,,,
319006.0,251765.0,,,,,,,,
319011.0,251752.0,,,,,,,,
319016.0,251685.0,,,,,,,,
319021.0,251633.0,,,,,,,,
319026.0,251627.0,,,,,,,,
319031.0,251608.0,,,,,,,,
319036.0,251611.0,,,,,,,,
319041.0,251585.0,,,,,,,,
319046.0,251579.0,,,,,,,,
319051.0,251593.0,,,,,,,,
319056.0,251636.0,,,,,,,,
319061.0,251633.0,,,,,,,,
319066.0,251678.0,,,,,,,,
319071.0,251707.0,,,,,,,,
319076.0,251746.0,,,,,,,,
319081.0,251786.0,,,,,,,,
319086.0,251859.0,,,,,,,,
319091.0,251912.0,,,,,,,,
319096.0,251971.0,,,,,,,,
319101.0,252033.0,,,,,,,,
319106.0,252086.0,,,,,,,,
319111.0,252155.0,,,,,,,,
319116.0,252235.0,,,,,,,,
319121.0,252317.0,,,,,,,,
319126.0,252379.0,,,,,,,,
319131.0,252480.0,,,,,,,,
319136.0,252542.0,,,,,,,,
319141.0,252613.0,,,,,,,,
319146.0,252706.0,,,,,,,,
319151.0,252780.0,,,,,,,,
319156.0,252866.0,,,,,,,,
319161.0,252950.0,,,,,,,,
319167.0,253011.0,,,,,,,,
319171.0,253107.0,,,,,,,,
319176.0,253187.0,,,,,,,,
319181.0,253246.0,,,,,,,,
319187.0,253340.0,,,,,,,,
319192.0,253433.0,,,,,,,,
319196.0,253481.0,,,,,,,,
319202.0,253563.0,,,,,,,,
319207.0,253641.0,,,,,,,,
319211.0,253721.0,,,,,,,,
319217.0,253796.0,,,,,,,,
319222.0,253863.0,,,,,,,,
319227.0,253925.0,,,,,,,,
319232.0,253986.0,,,,,,,,
319237.0,254063.0,,,,,,,,
319242.0,254105.0,,,,,,,,
319247.0,254156.0,,,,,,,,
319252.0,254243.0,,,,,,,,
319257.0,254274.0,,,,,,,,
319262.0,254343.0,,,,,,,,
319267.0,254399.0,,,,,,,,
319272.0,254466.0,,,,,,,,
319277.0,254533.0,,,,,,,,
319282.0,254594.0,,,,,,,,
319287.0,254641.0,,,,,,,,
319292.0,254706.0,,,,,,,,
319297.0,254768.0,,,,,,,,
319302.0,254825.0,,,,,,,,
319307.0,254881.0,,,,,,,,
319312.0,254923.0,,,,,,,,
319317.0,255027.0,,,,,,,,
319322.0,255035.0,,,,,,,,
319327.0,255111.0,,,,,,,,
319332.0,255176.0,,,,,,,,
319337.0,255217.0,,,,,,,,
319342.0,255222.0,,,,,,,,
319347.0,255289.0,,,,,,,,
319352.0,255323.0,,,,,,,,
319357.0,255374.0,,,,,,,,
319362.0,255422.0,,,,,,,,
319367.0,255467.0,,,,,,,,
319372.0,255496.0,,,,,,,,
319377.0,255566.0,,,,,,,,
319382.0,255591.0,,,,,,,,
319387.0,255627.0,,,,,,,,
319392.0,255690.0,,,,,,,,
319397.0,255711.0,,,,,,,,
319402.0,255774.0,,,,,,,,
319407.0,255821.0,,,,,,,,
319412.0,255831.0,,,,,,,,
319417.0,255871.0,,,,,,,,
319422.0,255919.0,,,,,,,,
319427.0,255966.0,,,,,,,,
319432.0,256018.0,,,,,,,,
319437.0,256060.0,,,,,,,,
319442.0,256089.0,,,,,,,,
319447.0,256136.0,,,,,,,,
319452.0,256194.0,,,,,,,,
319457.0,256227.0,,,,,,,,
319462.0,256288.0,,,,,,,,
319467.0,256310.0,,,,,,,,
319472.0,256367.0,,,,,,,,
319477.0,256421.0,,,,,,,,
319482.0,256448.0,,,,,,,,
319487.0,256487.0,,,,,,,,
319492.0,256527.0,,,,,,,,
319498.0,256561.0,,,,,,,,
319502.0,256599.0,,,,,,,,
319507.0,256634.0,,,,,,,,
319512.0,256654.0,,,,,,,,
319518.0,256698.0,,,,,,,,
319523.0,256752.0,,,,,,,,
319528.0,256775.0,,,,,,,,
319533.0,256831.0,,,,,,,,
319538.0,256877.0,,,,,,,,
319543.0,256953.0,,,,,,,,
319548.0,256993.0,,,,,,,,
319553.0,257029.0,,,,,,,,
319558.0,257118.0,,,,,,,,
319563.0,257166.0,,,,,,,,
319568.0,257220.0,,,,,,,,
319573.0,257279.0,,,,,,,,
319578.0,257352.0,,,,,,,,
319583.0,257403.0,,,,,,,,
319588.0,257442.0,,,,,,,,
319593.0,257513.0,,,,,,,,
319598.0,257579.0,,,,,,,,
319603.0,257614.0,,,,,,,,
319608.0,257653.0,,,,,,,,
319613.0,257668.0,,,,,,,,
319618.0,257659.0,,,,,,,,
319623.0,257580.0,,,,,,,,
319628.0,257490.0,,,,,,,,
319633.0,257343.0,,,,,,,,
319638.0,257125.0,,,,,,,,
319643.0,256891.0,,,,,,,,
319648.0,256568.0,,,,,,,,
319653.0,256242.0,,,,,,,,
319658.0,255878.0,,,,,,,,
319663.0,255460.0,,,,,,,,
319668.0,255084.0,,,,,,,,
319673.0,254651.0,,,,,,,,
319678.0,254242.0,,,,,,,,
319683.0,253838.0,,,,,,,,
319688.0,253440.0,,,,,,,,
319693.0,253064.0,,,,,,,,
319698.0,252724.0,,,,,,,,
319703.0,252423.0,,,,,,,,
319708.0,252117.0,,,,,,,,
319713.0,251846.0,,,,,,,,
319718.0,251618.0,,,,,,,,
319723.0,251433.0,,,,,,,,
319728.0,251298.0,,,,,,,,
319733.0,251145.0,,,,,,,,
319738.0,251053.0,,,,,,,,
319743.0,250970.0,,,,,,,,
319748.0,250928.0,,,,,,,,
319753.0,250872.0,,,,,,,,
319758.0,250858.0,,,,,,,,
319763.0,250852.0,,,,,,,,
319768.0,250880.0,,,,,,,,
319773.0,250898.0,,,,,,,,
319778.0,250957.0,,,,,,,,
319783.0,250982.0,,,,,,,,
319788.0,251048.0,,,,,,,,
319793.0,251117.0,,,,,,,,
319798.0,251167.0,,,,,,,,
319803.0,251215.0,,,,,,,,
319808.0,251263.0,,,,,,,,
319813.0,251348.0,,,,,,,,
319818.0,251428.0,,,,,,,,
319823.0,251494.0,,,,,,,,
319828.0,251580.0,,,,,,,,
319833.0,251645.0,,,,,,,,
319838.0,251730.0,,,,,,,,
319843.0,251801.0,,,,,,,,
319848.0,251890.0,,,,,,,,
319853.0,251974.0,,,,,,,,
319858.0,252082.0,,,,,,,,
319863.0,252159.0,,,,,,,,
319869.0,252268.0,,,,,,,,
319874.0,252364.0,,,,,,,,
319878.0,252492.0,,,,,,,,
319884.0,252604.0,,,,,,,,
319889.0,252707.0,,,,,,,,
319894.0,252830.0,,,,,,,,
319899.0,252970.0,,,,,,,,
319904.0,253087.0,,,,,,,,
319909.0,253185.0,,,,,,,,
319914.0,253277.0,,,,,,,,
319919.0,253398.0,,,,,,,,
319924.0,253476.0,,,,,,,,
319929.0,253549.0,,,,,,,,
319934.0,253604.0,,,,,,,,
319939.0,253654.0,,,,,,,,
319944.0,253720.0,,,,,,,,
319949.0,253748.0,,,,,,,,
319954.0,253753.0,,,,,,,,
319959.0,253769.0,,,,,,,,
319964.0,253760.0,,,,,,,,
319969.0,253734.0,,,,,,,,
319974.0,253748.0,,,,,,,,
319979.0,253732.0,,,,,,,,
319984.0,253677.0,,,,,,,,
319989.0,253645.0,,,,,,,,
319994.0,253600.0,,,,,,,,
319999.0,253571.0,,,,,,,,
320004.0,253533.0,,,,,,,,
320009.0,253503.0,,,,,,,,
320014.0,253448.0,,,,,,,,
320019.0,253412.0,,,,,,,,
320024.0,253380.0,,,,,,,,
320029.0,253369.0,,,,,,,,
320034.0,253325.0,,,,,,,,
320039.0,253302.0,,,,,,,,
320044.0,253325.0,,,,,,,,
320049.0,253310.0,,,,,,,,
320054.0,253316.0,,,,,,,,
320059.0,253358.0,,,,,,,,
320064.0,253367.0,,,,,,,,
320069.0,253373.0,,,,,,,,
320074.0,253429.0,,,,,,,,
320079.0,253453.0,,,,,,,,
320084.0,253495.0,,,,,,,,
320089.0,253544.0,,,,,,,,
320094.0,253601.0,,,,,,,,
320099.0,253657.0,,,,,,,,
320104.0,253738.0,,,,,,,,
320109.0,253803.0,,,,,,,,
320114.0,253863.0,,,,,,,,
320119.0,253939.0,,,,,,,,
320124.0,253990.0,,,,,,,,
320129.0,254074.0,,,,,,,,
320134.0,254143.0,,,,,,,,
320139.0,254204.0,,,,,,,,
320144.0,254289.0,,,,,,,,
320149.0,254362.0,,,,,,,,
320154.0,254446.0,,,,,,,,
320159.0,254541.0,,,,,,,,
320164.0,254607.0,,,,,,,,
320169.0,254680.0,,,,,,,,
320174.0,254760.0,,,,,,,,
320179.0,254823.0,,,,,,,,
320184.0,254934.0,,,,,,,,
320190.0,255004.0,,,,,,,,
320194.0,255112.0,,,,,,,,
320199.0,255182.0,,,,,,,,
320204.0,255265.0,,,,,,,,
320210.0,255348.0,,,,,,,,
320215.0,255441.0,,,,,,,,
320220.0,255498.0,,,,,,,,
320225.0,255590.0,,,,,,,,
320230.0,255669.0,,,,,,,,
320235.0,255744.0,,,,,,,,
320240.0,255800.0,,,,,,,,
320245.0,255903.0,,,,,,,,
320250.0,255980.0,,,,,,,,
320255.0,256017.0,,,,,,,,
320260.0,256097.0,,,,,,,,
320265.0,256160.0,,,,,,,,
320270.0,256234.0,,,,,,,,
320275.0,256313.0,,,,,,,,
320280.0,256344.0,,,,,,,,
320285.0,256437.0,,,,,,,,
320290.0,256497.0,,,,,,,,
320295.0,256558.0,,,,,,,,
320300.0,256611.0,,,,,,,,
320305.0,256664.0,,,,,,,,
320310.0,256728.0,,,,,,,,
320315.0,256785.0,,,,,,,,
320320.0,256827.0,,,,,,,,
320325.0,256879.0,,,,,,,,
320330.0,256919.0,,,,,,,,
320335.0,256978.0,,,,,,,,
320340.0,257020.0,,,,,,,,
320345.0,257054.0,,,,,,,,
320350.0,257115.0,,,,,,,,
320355.0,257151.0,,,,,,,,
320360.0,257190.0,,,,,,,,
320365.0,257213.0,,,,,,,,
320370.0,257258.0,,,,,,,,
320375.0,257296.0,,,,,,,,
320380.0,257310.0,,,,,,,,
320385.0,257355.0,,,,,,,,
320390.0,257379.0,,,,,,,,
320395.0,257431.0,,,,,,,,
320400.0,257467.0,,,,,,,,
320405.0,257493.0,,,,,,,,
320410.0,257499.0,,,,,,,,
320415.0,257542.0,,,,,,,,
320420.0,257572.0,,,,,,,,
320425.0,257603.0,,,,,,,,
320430.0,257611.0,,,,,,,,
320435.0,257640.0,,,,,,,,
320440.0,257664.0,,,,,,,,
320445.0,257691.0,,,,,,,,
320450.0,257706.0,,,,,,,,
320455.0,257729.0,,,,,,,,
320460.0,257756.0,,,,,,,,
320465.0,257776.0,,,,,,,,
320470.0,257788.0,,,,,,,,
320475.0,257823.0,,,,,,,,
320480.0,257840.0,,,,,,,,
320485.0,257841.0,,,,,,,,
320490.0,257866.0,,,,,,,,
320495.0,257883.0,,,,,,,,
320500.0,257893.0,,,,,,,,
320505.0,257924.0,,,,,,,,
320510.0,257919.0,,,,,,,,
320515.0,257956.0,,,,,,,,
